-11513.2333984375,-8716.5830078125,11293.8876953125,-8223.056640625,6811.61865234375,2430.280029296875,3738.4033203125,-5775.29296875,0.0,-3570.715576171875,-2041.65771484375,-15522.6396484375,0.0,0.0,0.0,-3571.51025390625,1436.8692626953125,11355.08203125,-0.0,85.03595733642578,6043.9111328125,9492.23828125,7062.75341796875,3040.631591796875,3390.312255859375,-4711.1513671875,-5940.59619140625,6407.896484375,-1901.7855224609375,-3588.994384765625,9098.84765625,-3674.824951171875,8625.984375,6039.142578125,5441.5068359375,6984.0751953125,3189.245849609375,-249.54476928710938,4208.087890625,-0.0,4998.8427734375,-14495.0556640625,3424.4853515625,12302.3984375,2946.05908203125,-6632.009765625,4603.86279296875,4757.24560546875,6740.09326171875,3783.702880859375,3356.93359375,-4299.48193359375,-14301.9365234375,-7987.81689453125,2660.75146484375,-1922.448486328125,0.0,-6179.8095703125,0.0,-6349.8818359375,-13223.4892578125,3760.65576171875,-8620.421875,0.0,-17024.67578125,-3274.28173828125,0.0,-7377.4658203125,0.0,4792.21337890625,-0.0,-5866.6865234375
-11514.02734375,-8728.50390625,11298.65625,-8225.44140625,6816.38720703125,2427.10107421875,3739.992919921875,-5778.4716796875,0.0,-3576.27880859375,-2027.3525390625,-15525.0234375,0.0,0.0,0.0,-3579.45751953125,1437.6640625,11351.9033203125,-0.0,84.2412338256836,6045.50048828125,9492.23828125,7062.75341796875,3038.247314453125,3400.6435546875,-4711.1513671875,-5939.0068359375,6402.33349609375,-1891.4541015625,-3592.968017578125,9097.2587890625,-3674.824951171875,8625.189453125,6039.9375,5443.09619140625,6982.4853515625,3190.835205078125,-250.33950805664062,4213.6513671875,-0.0,5003.611328125,-14497.439453125,3424.4853515625,12300.0146484375,2947.648193359375,-6636.7783203125,4605.4521484375,4758.8349609375,6746.45068359375,3780.52392578125,3357.728271484375,-4305.04443359375,-14303.525390625,-7986.22802734375,2668.698486328125,-1914.501220703125,0.0,-6182.98876953125,0.0,-6356.2392578125,-13240.177734375,3760.65576171875,-8622.009765625,0.0,-17019.90625,-3272.6923828125,0.0,-7383.0283203125,0.0,4780.29248046875,-0.0,-5879.40234375
-11515.6171875,-8718.9677734375,11317.7294921875,-8219.0830078125,6828.30810546875,2433.458984375,3739.992919921875,-5773.703125,0.0,-3573.099853515625,-2010.663330078125,-15513.896484375,0.0,0.0,0.0,-3577.0732421875,1451.1744384765625,11359.8505859375,-0.0,85.8306884765625,6058.21630859375,9500.98046875,7070.7001953125,3042.22119140625,3417.3330078125,-4707.177734375,-5931.0595703125,6407.10205078125,-1873.969970703125,-3591.37841796875,9105.205078125,-3661.314697265625,8643.4677734375,6050.2685546875,5450.24853515625,6988.84326171875,3192.4248046875,-247.16058349609375,4241.46630859375,-0.0,5016.3271484375,-14492.6708984375,3427.66455078125,12304.783203125,2950.032470703125,-6633.599609375,4620.55224609375,4762.80810546875,6756.78271484375,3786.881591796875,3356.93359375,-4301.0712890625,-14301.140625,-7979.0751953125,2685.387939453125,-1900.9908447265625,0.0,-6182.98876953125,0.0,-6351.470703125,-13279.9150390625,3768.60302734375,-8621.2158203125,0.0,-17005.6015625,-3269.513427734375,0.0,-7367.13427734375,0.0,4781.8818359375,-0.0,-5877.81298828125
-11515.6171875,-8699.099609375,11337.59765625,-8209.5458984375,6837.8447265625,2439.816650390625,3738.4033203125,-5770.5244140625,0.0,-3576.27880859375,-2005.8948974609375,-15498.001953125,0.0,0.0,0.0,-3577.8681640625,1466.2742919921875,11370.181640625,-0.0,78.67813110351562,6071.7265625,9510.517578125,7078.6474609375,3048.578857421875,3430.048583984375,-4701.6142578125,-5925.49658203125,6411.07568359375,-1859.6649169921875,-3578.662841796875,9117.9208984375,-3638.267578125,8660.1572265625,6062.189453125,5460.58056640625,6996.79052734375,3190.04052734375,-243.18695068359375,4255.771484375,-0.0,5031.4267578125,-14484.72265625,3429.25390625,12309.55078125,2948.443115234375,-6632.8046875,4648.3671875,4762.80810546875,6765.5244140625,3793.239501953125,3356.93359375,-4297.09765625,-14303.525390625,-7961.5908203125,2698.8984375,-1890.6593017578125,0.0,-6179.8095703125,0.0,-6354.64990234375,-13274.3525390625,3773.371337890625,-8621.2158203125,0.0,-16987.32421875,-3259.9765625,0.0,-7373.49169921875,0.0,4776.31884765625,-0.0,-5893.70703125
-11502.1064453125,-8684.7939453125,11345.5458984375,-8200.8046875,6839.43408203125,2446.96923828125,3737.608642578125,-5768.14013671875,0.0,-3578.662841796875,-2007.484375,-15490.0546875,0.0,0.0,0.0,-3573.099853515625,1473.4267578125,11374.9501953125,-0.0,74.7044906616211,6076.49462890625,9516.875,7081.03173828125,3052.552490234375,3429.25390625,-4692.07763671875,-5922.3173828125,6416.638671875,-1858.8701171875,-3570.715576171875,9124.279296875,-3631.114990234375,8666.515625,6070.13720703125,5465.3486328125,7003.1484375,3189.245849609375,-240.00804138183594,4261.3349609375,-0.0,5034.60546875,-14475.9814453125,3429.25390625,12315.1142578125,2946.853515625,-6632.009765625,4653.1357421875,4774.7294921875,6765.5244140625,3801.981689453125,3357.728271484375,-4293.91845703125,-14255.8408203125,-7950.46533203125,2699.69287109375,-1889.0699462890625,0.0,-6171.06787109375,0.0,-6353.06005859375,-13263.2255859375,3776.55029296875,-8618.83203125,0.0,-16978.58203125,-3252.823974609375,0.0,-7371.90234375,0.0,4781.08740234375,-0.0,-5891.3232421875
-11483.033203125,-8666.515625,11359.0556640625,-8188.08837890625,6848.17626953125,2459.68505859375,3739.992919921875,-5757.80859375,0.0,-3573.099853515625,-1986.8214111328125,-15487.6708984375,0.0,0.0,0.0,-3562.768310546875,1486.1424560546875,11387.666015625,-0.0,73.11502838134766,6090.00537109375,9531.1806640625,7090.568359375,3062.884033203125,3445.943115234375,-4680.15673828125,-5915.9599609375,6430.14892578125,-1842.180908203125,-3568.33154296875,9137.7900390625,-3617.6044921875,8679.23046875,6083.6474609375,5477.26953125,7015.0693359375,3193.219482421875,-230.47129821777344,4269.28173828125,-0.0,5047.3212890625,-14464.060546875,3430.84326171875,12327.03515625,2947.648193359375,-6625.65234375,4659.494140625,4787.4453125,6776.65087890625,3815.491943359375,3356.93359375,-4284.3818359375,-14220.078125,-7932.98046875,2716.38232421875,-1881.9173583984375,0.0,-6157.55712890625,0.0,-6344.318359375,-13251.3046875,3784.49755859375,-8614.0634765625,0.0,-16962.6875,-3245.671630859375,0.0,-7358.39208984375,0.0,4791.41845703125,-0.0,-5884.17041015625
-11495.7490234375,-8668.10546875,11351.9033203125,-8191.26806640625,6845.79248046875,2455.71142578125,3738.4033203125,-5760.19287109375,0.0,-3573.099853515625,-1984.437255859375,-15498.7978515625,0.0,0.0,0.0,-3566.741943359375,1478.989990234375,11385.28125,-0.0,72.32030487060547,6084.4423828125,9525.6162109375,7087.3896484375,3060.5,3443.558837890625,-4686.51416015625,-5916.75439453125,6425.380859375,-1845.35986328125,-3575.484130859375,9135.4052734375,-3622.372802734375,8674.4619140625,6080.46875,5474.88525390625,7011.890625,3194.014404296875,-232.85548400878906,4263.71923828125,-0.0,5044.93701171875,-14467.2392578125,3430.84326171875,12324.650390625,2947.648193359375,-6627.24169921875,4659.494140625,4785.06103515625,6774.2666015625,3809.928955078125,3356.138916015625,-4287.56103515625,-14216.10546875,-7938.54443359375,2713.998046875,-1906.5538330078125,0.0,-6162.3251953125,0.0,-6345.90771484375,-13254.4833984375,3781.318603515625,-8617.2421875,0.0,-16969.83984375,-3245.671630859375,0.0,-7359.1865234375,0.0,4789.0341796875,-0.0,-5885.759765625
-11503.6962890625,-8674.4619140625,11352.6982421875,-8190.47265625,6847.3818359375,2452.532470703125,3739.197998046875,-5760.19287109375,0.0,-3570.715576171875,-1978.07958984375,-15494.029296875,0.0,0.0,0.0,-3566.741943359375,1480.579345703125,11383.6923828125,-0.0,75.49921417236328,6086.03125,9524.822265625,7087.3896484375,3060.5,3443.558837890625,-4689.693359375,-5915.1650390625,6423.79150390625,-1845.35986328125,-3567.53662109375,9133.8154296875,-3624.757080078125,8676.0517578125,6078.87890625,5474.88525390625,7008.71142578125,3194.014404296875,-232.85548400878906,4267.6923828125,-0.0,5046.5263671875,-14469.6240234375,3431.637939453125,12321.47265625,2948.443115234375,-6624.857421875,4665.056640625,4784.26611328125,6775.85595703125,3802.7763671875,3355.343994140625,-4285.97119140625,-14231.9990234375,-7951.259765625,2713.203369140625,-1918.474853515625,0.0,-6160.736328125,0.0,-6345.11328125,-13247.3310546875,3781.318603515625,-8614.0634765625,0.0,-16973.814453125,-3236.134765625,0.0,-7359.1865234375,0.0,4789.8291015625,-0.0,-5881.7861328125
-11494.9541015625,-8683.9990234375,11355.08203125,-8189.67822265625,6850.560546875,2453.3271484375,3739.992919921875,-5758.603515625,0.0,-3565.947265625,-1969.33740234375,-15490.0546875,0.0,0.0,0.0,-3562.768310546875,1482.963623046875,11384.4873046875,-0.0,78.67813110351562,6089.21044921875,9528.0009765625,7090.568359375,3062.089111328125,3446.738037109375,-4690.48828125,-5911.98583984375,6427.7646484375,-1842.9755859375,-3561.9736328125,9136.994140625,-3625.552001953125,8678.4365234375,6080.46875,5478.06396484375,7011.095703125,3194.014404296875,-229.6765594482422,4278.81884765625,-0.0,5046.5263671875,-14468.0341796875,3433.2275390625,12323.0615234375,2948.443115234375,-6620.8837890625,4666.646484375,4786.650390625,6779.82958984375,3805.955078125,3357.728271484375,-4283.5869140625,-14251.8681640625,-7956.822265625,2716.38232421875,-1890.6593017578125,0.0,-6157.55712890625,0.0,-6339.5498046875,-13225.078125,3784.49755859375,-8610.0888671875,0.0,-16967.455078125,-3234.54541015625,0.0,-7357.59716796875,0.0,4794.59765625,-0.0,-5875.4287109375
-11507.669921875,-8705.45703125,11347.9296875,-8196.8310546875,6844.99755859375,2447.76416015625,3739.992919921875,-5763.3720703125,0.0,-3569.126220703125,-1973.3111572265625,-15500.38671875,0.0,0.0,0.0,-3568.33154296875,1475.81103515625,11378.9248046875,-0.0,77.8833999633789,6082.05810546875,9521.6435546875,7085.00537109375,3055.7314453125,3441.9697265625,-4697.64111328125,-5918.34423828125,6421.4072265625,-1846.94921875,-3571.51025390625,9129.0478515625,-3635.88330078125,8669.6943359375,6072.52099609375,5470.91162109375,7005.53271484375,3193.219482421875,-235.2396697998047,4268.4873046875,-0.0,5040.1689453125,-14475.1865234375,3431.637939453125,12317.498046875,2949.23779296875,-6623.26806640625,4653.9306640625,4781.8818359375,6771.88232421875,3798.802734375,3356.93359375,-4289.150390625,-14271.736328125,-7960.001953125,2712.40869140625,-1881.9173583984375,0.0,-6164.70947265625,0.0,-6343.5234375,-13251.3046875,3779.729248046875,-8613.2685546875,0.0,-16957.91796875,-3255.208251953125,0.0,-7362.36572265625,0.0,4790.6240234375,-0.0,-5879.40234375
-11503.6962890625,-8710.2255859375,11343.1611328125,-8200.8046875,6839.43408203125,2443.79052734375,3739.197998046875,-5768.14013671875,0.0,-3574.689208984375,-1972.516357421875,-15505.154296875,0.0,0.0,0.0,-3573.89453125,1471.0426025390625,11374.9501953125,-0.0,77.08867645263672,6077.28955078125,9514.4912109375,7081.03173828125,3050.168212890625,3437.201171875,-4703.20361328125,-5923.90673828125,6416.638671875,-1853.30712890625,-3581.047119140625,9124.279296875,-3633.4990234375,8668.10546875,6067.7529296875,5464.5537109375,7000.76416015625,3192.4248046875,-239.2133026123047,4262.92431640625,-0.0,5033.81103515625,-14479.955078125,3428.459228515625,12313.525390625,2949.23779296875,-6627.24169921875,4642.8046875,4774.7294921875,6767.90869140625,3795.623779296875,3356.93359375,-4293.91845703125,-14278.0947265625,-7954.43798828125,2706.845458984375,-1888.275146484375,0.0,-6171.8623046875,0.0,-6349.8818359375,-13259.251953125,3774.166015625,-8617.2421875,0.0,-16956.330078125,-3259.181884765625,0.0,-7367.92919921875,0.0,4785.85595703125,-0.0,-5885.759765625
-11489.3916015625,-8712.609375,11338.3935546875,-8200.8046875,6837.8447265625,2444.585205078125,3737.608642578125,-5767.34521484375,0.0,-3574.689208984375,-1972.516357421875,-15505.154296875,0.0,0.0,0.0,-3573.89453125,1470.2479248046875,11374.15625,-0.0,74.7044906616211,6075.7001953125,9515.28515625,7080.23681640625,3049.37353515625,3435.61181640625,-4703.20361328125,-5923.1123046875,6416.638671875,-1854.896484375,-3583.43115234375,9125.0732421875,-3629.525390625,8666.515625,6065.36865234375,5465.3486328125,7000.76416015625,3192.4248046875,-239.2133026123047,4258.15576171875,-0.0,5033.01611328125,-14483.1337890625,3426.86962890625,12313.525390625,2946.853515625,-6631.21533203125,4638.0361328125,4775.52392578125,6765.5244140625,3795.623779296875,3357.728271484375,-4292.3291015625,-14269.3515625,-7962.38623046875,2706.05078125,-1889.8646240234375,0.0,-6171.8623046875,0.0,-6352.265625,-13257.6630859375,3773.371337890625,-8618.037109375,0.0,-16961.09765625,-3254.41357421875,0.0,-7374.28662109375,0.0,4780.29248046875,-0.0,-5886.5546875
-11471.9072265625,-8699.099609375,11339.982421875,-8198.4208984375,6840.22900390625,2446.174560546875,3737.608642578125,-5767.34521484375,0.0,-3576.27880859375,-1974.1058349609375,-15504.3603515625,0.0,0.0,0.0,-3573.099853515625,1470.2479248046875,11374.9501953125,-0.0,73.90975952148438,6077.28955078125,9517.669921875,7081.82666015625,3049.37353515625,3437.201171875,-4703.99853515625,-5920.72802734375,6417.43310546875,-1852.5123291015625,-3585.020751953125,9124.279296875,-3630.3203125,8664.92578125,6068.5478515625,5466.93798828125,7003.94287109375,3191.630126953125,-239.2133026123047,4250.20849609375,-0.0,5033.81103515625,-14481.544921875,3426.86962890625,12315.1142578125,2946.05908203125,-6632.009765625,4639.62548828125,4779.49755859375,6765.5244140625,3795.623779296875,3357.728271484375,-4293.12353515625,-14227.2314453125,-7971.9228515625,2708.43505859375,-1889.0699462890625,0.0,-6168.68359375,0.0,-6350.67626953125,-13264.8154296875,3775.755615234375,-8619.6259765625,0.0,-16957.91796875,-3254.41357421875,0.0,-7375.8759765625,0.0,4777.908203125,-0.0,-5889.73388671875
-11490.9814453125,-8695.919921875,11339.1875,-8203.1884765625,6838.6396484375,2442.995849609375,3739.197998046875,-5768.9345703125,0.0,-3575.484130859375,-1972.516357421875,-15510.71875,0.0,0.0,0.0,-3573.099853515625,1471.83740234375,11374.9501953125,-0.0,76.2939453125,6076.49462890625,9515.28515625,7081.82666015625,3051.7578125,3433.2275390625,-4707.97216796875,-5922.3173828125,6417.43310546875,-1856.4859619140625,-3588.19970703125,9123.484375,-3630.3203125,8664.92578125,6067.7529296875,5466.14306640625,7001.55859375,3193.219482421875,-238.4185791015625,4251.00341796875,-0.0,5029.8369140625,-14483.9287109375,3427.66455078125,12314.3193359375,2949.23779296875,-6631.21533203125,4638.0361328125,4772.34521484375,6764.72998046875,3795.623779296875,3358.523193359375,-4293.12353515625,-14248.6884765625,-7970.3330078125,2705.256103515625,-1893.8382568359375,0.0,-6169.47802734375,0.0,-6350.67626953125,-13270.3779296875,3774.166015625,-8618.83203125,0.0,-16964.27734375,-3261.566162109375,0.0,-7372.697265625,0.0,4787.4453125,-0.0,-5881.7861328125
-11519.591796875,-8694.3310546875,11345.5458984375,-8200.009765625,6840.22900390625,2447.76416015625,3740.78759765625,-5764.16650390625,0.0,-3567.53662109375,-1963.7744140625,-15506.744140625,0.0,0.0,0.0,-3565.947265625,1476.605712890625,11378.9248046875,-0.0,79.47286224365234,6080.46875,9520.0537109375,7085.80029296875,3054.14208984375,3429.25390625,-4701.6142578125,-5921.5224609375,6422.99658203125,-1859.6649169921875,-3587.405029296875,9128.2529296875,-3627.141357421875,8672.078125,6070.93212890625,5471.70654296875,7004.73779296875,3194.014404296875,-233.65020751953125,4270.07666015625,-0.0,5034.60546875,-14479.16015625,3432.432861328125,12320.677734375,2950.827392578125,-6626.447265625,4649.162109375,4773.93505859375,6768.70361328125,3801.981689453125,3360.112548828125,-4285.97119140625,-14244.7158203125,-7956.02783203125,2701.282470703125,-1891.4541015625,0.0,-6163.9150390625,0.0,-6345.11328125,-13258.45703125,3778.9345703125,-8612.4736328125,0.0,-16971.4296875,-3258.38720703125,0.0,-7364.75,0.0,4796.98193359375,-0.0,-5872.24951171875
-11515.6171875,-8685.5888671875,11348.724609375,-8199.21484375,6840.22900390625,2450.1484375,3739.992919921875,-5761.7822265625,0.0,-3565.947265625,-1975.6953125,-15499.591796875,0.0,0.0,0.0,-3560.384033203125,1477.400390625,11380.513671875,-0.0,81.06231689453125,6082.05810546875,9521.6435546875,7087.3896484375,3056.526123046875,3427.66455078125,-4698.435546875,-5925.49658203125,6426.17578125,-1860.459716796875,-3590.583740234375,9131.431640625,-3626.3466796875,8672.873046875,6072.52099609375,5472.50146484375,7007.1220703125,3194.80908203125,-232.85548400878906,4272.4609375,-0.0,5036.1953125,-14477.5703125,3431.637939453125,12322.2666015625,2950.032470703125,-6623.26806640625,4649.95703125,4767.57666015625,6768.70361328125,3804.365966796875,3356.93359375,-4283.5869140625,-14233.5888671875,-7948.87548828125,2700.48779296875,-1887.4803466796875,0.0,-6159.14697265625,0.0,-6339.5498046875,-13259.251953125,3782.908203125,-8611.6787109375,0.0,-16969.83984375,-3248.0556640625,0.0,-7359.9814453125,0.0,4789.8291015625,-0.0,-5871.45458984375
-11504.4912109375,-8687.97265625,11348.724609375,-8201.599609375,6839.43408203125,2446.96923828125,3740.78759765625,-5761.7822265625,0.0,-3569.126220703125,-1986.0267333984375,-15502.7705078125,0.0,0.0,0.0,-3557.999755859375,1478.989990234375,11378.9248046875,-0.0,81.06231689453125,6082.05810546875,9520.0537109375,7085.80029296875,3056.526123046875,3426.86962890625,-4699.22998046875,-5926.291015625,6425.380859375,-1863.6385498046875,-3585.020751953125,9129.841796875,-3624.757080078125,8672.873046875,6070.13720703125,5471.70654296875,7007.1220703125,3194.80908203125,-232.85548400878906,4285.1767578125,-0.0,5035.400390625,-14479.955078125,3430.84326171875,12322.2666015625,2948.443115234375,-6625.65234375,4641.21484375,4765.1923828125,6768.70361328125,3803.571044921875,3356.93359375,-4284.3818359375,-14216.8994140625,-7950.46533203125,2698.8984375,-1889.0699462890625,0.0,-6160.736328125,0.0,-6338.75537109375,-13256.8671875,3780.52392578125,-8612.4736328125,0.0,-16965.865234375,-3247.260986328125,0.0,-7357.59716796875,0.0,4796.18701171875,-0.0,-5872.24951171875
-11496.5439453125,-8691.947265625,11343.9560546875,-8202.3935546875,6839.43408203125,2445.3798828125,3740.78759765625,-5766.55078125,0.0,-3571.51025390625,-1978.874267578125,-15510.71875,0.0,0.0,0.0,-3566.741943359375,1475.0162353515625,11378.9248046875,-0.0,79.47286224365234,6079.673828125,9518.4638671875,7085.80029296875,3055.7314453125,3428.459228515625,-4699.22998046875,-5924.70166015625,6420.6123046875,-1860.459716796875,-3584.225830078125,9127.4580078125,-3631.114990234375,8669.6943359375,6067.7529296875,5471.70654296875,7003.94287109375,3195.603515625,-235.2396697998047,4271.666015625,-0.0,5035.400390625,-14479.16015625,3430.84326171875,12319.087890625,2949.23779296875,-6625.65234375,4638.83056640625,4765.1923828125,6768.70361328125,3798.802734375,3358.523193359375,-4287.56103515625,-14216.10546875,-7956.822265625,2700.48779296875,-1891.4541015625,0.0,-6167.09375,0.0,-6344.318359375,-13257.6630859375,3778.139892578125,-8613.2685546875,0.0,-16957.91796875,-3256.7978515625,0.0,-7358.39208984375,0.0,4800.955078125,-0.0,-5872.24951171875
-11485.4169921875,-8699.8935546875,11339.982421875,-8200.8046875,6842.61328125,2444.585205078125,3741.582275390625,-5766.55078125,0.0,-3571.51025390625,-1974.1058349609375,-15520.2548828125,0.0,0.0,0.0,-3568.33154296875,1472.632080078125,11379.71875,-0.0,77.8833999633789,6079.673828125,9517.669921875,7087.3896484375,3053.347412109375,3431.637939453125,-4700.8193359375,-5919.93310546875,6416.638671875,-1855.6912841796875,-3596.941650390625,9127.4580078125,-3636.677978515625,8668.8994140625,6070.93212890625,5471.70654296875,7002.353515625,3195.603515625,-236.03439331054688,4265.30859375,-0.0,5036.1953125,-14476.7763671875,3430.84326171875,12317.498046875,2950.827392578125,-6624.857421875,4642.8046875,4765.9873046875,6771.88232421875,3798.802734375,3357.728271484375,-4288.35546875,-14231.205078125,-7967.94873046875,2704.46142578125,-1893.8382568359375,0.0,-6168.68359375,0.0,-6345.11328125,-13259.251953125,3778.9345703125,-8615.6533203125,0.0,-16957.91796875,-3259.9765625,0.0,-7357.59716796875,0.0,4802.544921875,-0.0,-5870.66015625
-11488.5966796875,-8702.2783203125,11347.134765625,-8194.4462890625,6847.3818359375,2449.353515625,3741.582275390625,-5761.7822265625,0.0,-3565.15234375,-1971.7216796875,-15515.486328125,0.0,0.0,0.0,-3561.9736328125,1478.1951904296875,11384.4873046875,-0.0,81.06231689453125,6082.85302734375,9522.4384765625,7091.36328125,3057.32080078125,3437.201171875,-4694.4619140625,-5919.93310546875,6422.20166015625,-1853.30712890625,-3595.35205078125,9131.431640625,-3631.114990234375,8673.66796875,6074.9052734375,5476.474609375,7007.1220703125,3194.80908203125,-232.0607452392578,4266.8974609375,-0.0,5042.552734375,-14471.212890625,3431.637939453125,12321.47265625,2950.032470703125,-6621.6787109375,4651.54638671875,4773.14013671875,6775.06103515625,3803.571044921875,3356.93359375,-4285.1767578125,-14235.9736328125,-7966.359375,2709.229736328125,-1886.6856689453125,0.0,-6160.736328125,0.0,-6341.13916015625,-13261.6357421875,3782.11328125,-8611.6787109375,0.0,-16953.150390625,-3252.823974609375,0.0,-7351.23974609375,0.0,4808.10791015625,-0.0,-5862.712890625
-11477.470703125,-8711.814453125,11351.9033203125,-8192.0625,6849.765625,2454.916748046875,3740.78759765625,-5760.19287109375,0.0,-3565.15234375,-1966.9532470703125,-15507.5390625,0.0,0.0,0.0,-3559.58935546875,1483.75830078125,11388.4609375,-0.0,83.44650268554688,6087.62109375,9526.412109375,7092.95263671875,3062.089111328125,3441.1748046875,-4692.87255859375,-5921.5224609375,6429.35400390625,-1851.7176513671875,-3578.662841796875,9137.7900390625,-3622.372802734375,8679.23046875,6079.673828125,5480.4482421875,7010.30126953125,3195.603515625,-228.0871124267578,4270.87158203125,-0.0,5046.5263671875,-14469.6240234375,3433.2275390625,12326.240234375,2950.032470703125,-6622.47314453125,4658.69921875,4777.908203125,6777.4453125,3809.13427734375,3356.93359375,-4281.20263671875,-14219.2841796875,-7958.412109375,2710.8193359375,-1885.8909912109375,0.0,-6155.9677734375,0.0,-6337.9609375,-13278.3251953125,3786.0869140625,-8610.0888671875,0.0,-16949.97265625,-3244.876953125,0.0,-7352.8291015625,0.0,4809.69775390625,-0.0,-5859.53369140625
-11469.5234375,-8715.7890625,11351.9033203125,-8196.8310546875,6847.3818359375,2451.737548828125,3739.992919921875,-5762.5771484375,0.0,-3568.33154296875,-1968.5428466796875,-15514.69140625,0.0,0.0,0.0,-3559.58935546875,1481.3741455078125,11385.28125,-0.0,80.26758575439453,6086.826171875,9523.232421875,7091.36328125,3058.11572265625,3438.79052734375,-4700.02490234375,-5923.1123046875,6426.17578125,-1854.896484375,-3578.662841796875,9135.4052734375,-3624.757080078125,8676.0517578125,6079.673828125,5478.06396484375,7007.1220703125,3194.014404296875,-232.0607452392578,4266.10302734375,-0.0,5045.73193359375,-14476.7763671875,3431.637939453125,12323.8564453125,2950.032470703125,-6627.24169921875,4653.9306640625,4775.52392578125,6774.2666015625,3805.955078125,3357.728271484375,-4283.5869140625,-14214.515625,-7964.7705078125,2707.640380859375,-1893.8382568359375,0.0,-6159.94140625,0.0,-6338.75537109375,-13287.0673828125,3782.11328125,-8612.4736328125,0.0,-16981.759765625,-3250.43994140625,0.0,-7353.6240234375,0.0,4812.87646484375,-0.0,-5860.32861328125
-11483.828125,-8703.072265625,11350.314453125,-8204.77734375,6844.99755859375,2446.174560546875,3738.4033203125,-5770.5244140625,0.0,-3575.484130859375,-1970.927001953125,-15520.2548828125,0.0,0.0,0.0,-3566.741943359375,1476.605712890625,11379.71875,-0.0,73.90975952148438,6081.26318359375,9518.4638671875,7088.97900390625,3054.14208984375,3436.406494140625,-4707.177734375,-5923.90673828125,6419.8173828125,-1856.4859619140625,-3588.19970703125,9129.0478515625,-3629.525390625,8671.2841796875,6074.1103515625,5474.88525390625,7000.76416015625,3192.4248046875,-236.03439331054688,4266.8974609375,-0.0,5041.75830078125,-14486.3125,3429.25390625,12318.2939453125,2948.443115234375,-6634.39404296875,4645.9833984375,4765.9873046875,6774.2666015625,3799.597412109375,3356.93359375,-4289.150390625,-14223.2578125,-7976.69140625,2706.845458984375,-1900.196044921875,0.0,-6166.29931640625,0.0,-6347.49755859375,-13273.556640625,3776.55029296875,-8618.83203125,0.0,-16988.912109375,-3256.003173828125,0.0,-7362.36572265625,0.0,4796.98193359375,-0.0,-5876.22314453125
-11505.2861328125,-8704.662109375,11348.724609375,-8211.1357421875,6843.408203125,2444.585205078125,3738.4033203125,-5771.31884765625,0.0,-3573.89453125,-1973.3111572265625,-15520.2548828125,0.0,0.0,0.0,-3567.53662109375,1474.2215576171875,11379.71875,-0.0,75.49921417236328,6082.05810546875,9516.080078125,7088.1845703125,3051.7578125,3433.2275390625,-4709.56201171875,-5923.90673828125,6420.6123046875,-1859.6649169921875,-3593.7626953125,9127.4580078125,-3635.088623046875,8670.4892578125,6069.34228515625,5473.2958984375,6999.9697265625,3191.630126953125,-237.6238555908203,4261.3349609375,-0.0,5038.57958984375,-14491.8759765625,3429.25390625,12319.087890625,2947.648193359375,-6635.18896484375,4647.57275390625,4762.013671875,6771.88232421875,3798.802734375,3356.138916015625,-4288.35546875,-14244.7158203125,-7987.0224609375,2702.0771484375,-1899.4013671875,0.0,-6167.888671875,0.0,-6346.70263671875,-13261.6357421875,3774.166015625,-8618.037109375,0.0,-16973.01953125,-3257.592529296875,0.0,-7356.80224609375,0.0,4802.544921875,-0.0,-5869.0703125
-11495.7490234375,-8712.609375,11354.287109375,-8207.162109375,6842.61328125,2445.3798828125,3740.78759765625,-5769.7294921875,0.0,-3573.89453125,-1970.927001953125,-15519.4599609375,0.0,0.0,0.0,-3569.9208984375,1475.0162353515625,11382.1025390625,-0.0,76.2939453125,6085.23681640625,9518.4638671875,7089.7734375,3053.347412109375,3432.432861328125,-4704.79345703125,-5922.3173828125,6421.4072265625,-1859.6649169921875,-3598.531005859375,9130.63671875,-3637.472900390625,8675.2578125,6073.31591796875,5474.88525390625,7001.55859375,3194.80908203125,-237.6238555908203,4260.5400390625,-0.0,5041.75830078125,-14487.90234375,3427.66455078125,12319.8828125,2946.853515625,-6635.98388671875,4653.9306640625,4768.37158203125,6771.087890625,3798.802734375,3356.138916015625,-4290.73974609375,-14250.2783203125,-7992.5849609375,2702.0771484375,-1903.375,0.0,-6170.27294921875,0.0,-6349.0869140625,-13270.3779296875,3776.55029296875,-8616.447265625,0.0,-16963.482421875,-3256.7978515625,0.0,-7359.9814453125,0.0,4804.13427734375,-0.0,-5869.865234375
-11498.927734375,-8711.0205078125,11353.4931640625,-8201.599609375,6844.20263671875,2447.76416015625,3739.197998046875,-5764.96142578125,0.0,-3570.715576171875,-1974.9005126953125,-15517.87109375,0.0,0.0,0.0,-3566.741943359375,1478.1951904296875,11384.4873046875,-0.0,77.08867645263672,6088.41552734375,9522.4384765625,7091.36328125,3057.32080078125,3433.2275390625,-4698.435546875,-5923.1123046875,6424.5859375,-1858.075439453125,-3593.7626953125,9133.8154296875,-3631.90966796875,8675.2578125,6078.87890625,5477.26953125,7007.1220703125,3195.603515625,-233.65020751953125,4262.92431640625,-0.0,5040.9638671875,-14478.3662109375,3430.048583984375,12322.2666015625,2947.648193359375,-6630.4208984375,4654.7255859375,4771.55078125,6772.6767578125,3801.981689453125,3356.93359375,-4288.35546875,-14247.099609375,-7987.0224609375,2702.0771484375,-1900.9908447265625,0.0,-6166.29931640625,0.0,-6344.318359375,-13266.404296875,3779.729248046875,-8614.0634765625,0.0,-16959.509765625,-3253.618896484375,0.0,-7360.7763671875,0.0,4804.13427734375,-0.0,-5868.27587890625
-11512.4384765625,-8714.9931640625,11350.314453125,-8199.21484375,6845.79248046875,2446.174560546875,3739.197998046875,-5767.34521484375,0.0,-3574.689208984375,-1980.4637451171875,-15517.87109375,0.0,0.0,0.0,-3569.126220703125,1478.989990234375,11382.8974609375,-0.0,73.11502838134766,6086.03125,9519.259765625,7089.7734375,3057.32080078125,3434.817138671875,-4698.435546875,-5923.90673828125,6420.6123046875,-1856.4859619140625,-3589.7890625,9133.021484375,-3634.293701171875,8673.66796875,6076.49462890625,5477.26953125,7007.9169921875,3192.4248046875,-236.03439331054688,4277.2294921875,-0.0,5041.75830078125,-14477.5703125,3430.048583984375,12320.677734375,2948.443115234375,-6632.009765625,4651.54638671875,4770.755859375,6772.6767578125,3801.186767578125,3356.93359375,-4288.35546875,-14244.7158203125,-7983.04833984375,2703.666748046875,-1901.7855224609375,0.0,-6168.68359375,0.0,-6347.49755859375,-13268.7880859375,3779.729248046875,-8617.2421875,0.0,-16964.27734375,-3256.7978515625,0.0,-7370.31298828125,0.0,4786.650390625,-0.0,-5882.5810546875
-11521.9755859375,-8713.404296875,11348.724609375,-8198.4208984375,6845.79248046875,2445.3798828125,3739.197998046875,-5767.34521484375,0.0,-3578.662841796875,-1978.07958984375,-15510.71875,0.0,0.0,0.0,-3571.51025390625,1477.400390625,11382.8974609375,-0.0,71.52557373046875,6084.4423828125,9520.0537109375,7090.568359375,3058.910400390625,3434.022216796875,-4700.02490234375,-5923.90673828125,6419.8173828125,-1858.075439453125,-3587.405029296875,9133.8154296875,-3633.4990234375,8673.66796875,6077.28955078125,5477.26953125,7007.9169921875,3194.80908203125,-235.2396697998047,4274.05029296875,-0.0,5043.34765625,-14476.7763671875,3430.84326171875,12319.8828125,2949.23779296875,-6632.8046875,4648.3671875,4772.34521484375,6773.4716796875,3801.186767578125,3356.138916015625,-4290.73974609375,-14249.484375,-7976.69140625,2704.46142578125,-1900.9908447265625,0.0,-6168.68359375,0.0,-6353.85498046875,-13295.0146484375,3780.52392578125,-8619.6259765625,0.0,-16962.6875,-3236.134765625,0.0,-7380.64453125,0.0,4773.14013671875,-0.0,-5895.29638671875
-11523.564453125,-8721.3515625,11343.9560546875,-8200.8046875,6844.20263671875,2440.611572265625,3738.4033203125,-5770.5244140625,0.0,-3580.25244140625,-1981.2584228515625,-15519.4599609375,0.0,0.0,0.0,-3574.689208984375,1475.0162353515625,11380.513671875,-0.0,69.93611907958984,6082.85302734375,9516.875,7088.97900390625,3054.14208984375,3433.2275390625,-4700.8193359375,-5922.3173828125,6415.04931640625,-1855.6912841796875,-3602.504638671875,9129.0478515625,-3625.552001953125,8669.6943359375,6075.7001953125,5474.88525390625,7003.94287109375,3192.4248046875,-238.4185791015625,4262.12939453125,-0.0,5041.75830078125,-14475.9814453125,3430.048583984375,12316.7041015625,2949.23779296875,-6635.98388671875,4645.9833984375,4768.37158203125,6772.6767578125,3798.802734375,3356.138916015625,-4294.71337890625,-14262.19921875,-7983.04833984375,2705.256103515625,-1900.196044921875,0.0,-6176.63037109375,0.0,-6357.82861328125,-13333.1611328125,3778.139892578125,-8620.421875,0.0,-16956.330078125,-3250.43994140625,0.0,-7383.0283203125,0.0,4773.93505859375,-0.0,-5880.99169921875
-11511.6435546875,-8730.888671875,11340.77734375,-8203.1884765625,6840.22900390625,2439.02197265625,3737.608642578125,-5769.7294921875,0.0,-3577.0732421875,-1986.8214111328125,-15524.228515625,0.0,0.0,0.0,-3571.51025390625,1471.0426025390625,11378.12890625,-0.0,71.52557373046875,6080.46875,9512.9013671875,7085.80029296875,3051.7578125,3436.406494140625,-4703.20361328125,-5922.3173828125,6414.2548828125,-1852.5123291015625,-3602.504638671875,9125.869140625,-3629.525390625,8665.720703125,6073.31591796875,5471.70654296875,7001.55859375,3190.04052734375,-237.6238555908203,4247.82421875,-0.0,5036.98974609375,-14477.5703125,3428.459228515625,12315.1142578125,2947.648193359375,-6634.39404296875,4651.54638671875,4764.39794921875,6771.087890625,3798.008056640625,3355.343994140625,-4294.71337890625,-14255.046875,-7990.201171875,2707.640380859375,-1897.01708984375,0.0,-6177.42529296875,0.0,-6352.265625,-13320.4462890625,3774.960693359375,-8620.421875,0.0,-16949.177734375,-3267.924072265625,0.0,-7375.8759765625,0.0,4779.49755859375,-0.0,-5875.4287109375
-11510.0546875,-8729.298828125,11338.3935546875,-8202.3935546875,6840.22900390625,2441.40625,3737.608642578125,-5766.55078125,0.0,-3573.099853515625,-1989.20556640625,-15521.0498046875,0.0,0.0,0.0,-3567.53662109375,1467.8636474609375,11377.3349609375,-0.0,73.90975952148438,6078.08447265625,9512.1064453125,7086.59521484375,3053.347412109375,3431.637939453125,-4702.4091796875,-5922.3173828125,6419.02294921875,-1858.075439453125,-3591.37841796875,9124.279296875,-3639.85693359375,8663.3369140625,6070.93212890625,5473.2958984375,7003.94287109375,3191.630126953125,-236.03439331054688,4245.43994140625,-0.0,5035.400390625,-14474.3916015625,3427.66455078125,12318.2939453125,2947.648193359375,-6628.83154296875,4646.7783203125,4769.16650390625,6769.49853515625,3800.39208984375,3355.343994140625,-4289.9453125,-14260.609375,-7980.6640625,2703.666748046875,-1900.196044921875,0.0,-6172.6572265625,0.0,-6344.318359375,-13255.2783203125,3777.344970703125,-8616.447265625,0.0,-16951.560546875,-3258.38720703125,0.0,-7359.1865234375,0.0,4794.59765625,-0.0,-5884.96533203125
-11521.1796875,-8732.478515625,11343.9560546875,-8200.8046875,6842.61328125,2442.200927734375,3739.197998046875,-5767.34521484375,0.0,-3574.689208984375,-1982.847900390625,-15511.5126953125,0.0,0.0,0.0,-3573.099853515625,1469.4532470703125,11378.12890625,-0.0,73.11502838134766,6082.05810546875,9512.9013671875,7088.1845703125,3054.14208984375,3434.022216796875,-4694.4619140625,-5919.138671875,6417.43310546875,-1855.6912841796875,-3577.8681640625,9125.0732421875,-3646.21484375,8666.515625,6070.93212890625,5475.6796875,7004.73779296875,3191.630126953125,-234.44493103027344,4251.00341796875,-0.0,5039.3740234375,-14469.6240234375,3430.048583984375,12317.498046875,2946.853515625,-6628.03662109375,4648.3671875,4772.34521484375,6772.6767578125,3801.186767578125,3356.93359375,-4292.3291015625,-14277.298828125,-7966.359375,2705.256103515625,-1894.6329345703125,0.0,-6169.47802734375,0.0,-6352.265625,-13229.8466796875,3779.729248046875,-8614.857421875,0.0,-16947.587890625,-3250.43994140625,0.0,-7368.7236328125,0.0,4785.85595703125,-0.0,-5885.759765625
-11533.1015625,-8714.19921875,11348.724609375,-8207.95703125,6840.22900390625,2438.227294921875,3739.197998046875,-5769.7294921875,0.0,-3573.89453125,-1982.847900390625,-15511.5126953125,0.0,0.0,0.0,-3573.89453125,1469.4532470703125,11375.7451171875,-0.0,73.90975952148438,6078.87890625,9510.517578125,7085.80029296875,3051.7578125,3435.61181640625,-4699.22998046875,-5919.138671875,6414.2548828125,-1855.6912841796875,-3583.43115234375,9121.1005859375,-3645.420166015625,8667.3095703125,6068.5478515625,5474.0908203125,7001.55859375,3191.630126953125,-238.4185791015625,4258.95068359375,-0.0,5040.1689453125,-14471.212890625,3427.66455078125,12314.3193359375,2946.05908203125,-6630.4208984375,4652.34130859375,4763.60302734375,6770.29296875,3797.21337890625,3356.93359375,-4294.71337890625,-14258.2255859375,-7976.69140625,2707.640380859375,-1897.8118896484375,0.0,-6166.29931640625,0.0,-6353.06005859375,-13257.6630859375,3776.55029296875,-8618.037109375,0.0,-16949.97265625,-3261.566162109375,0.0,-7372.697265625,0.0,4787.4453125,-0.0,-5881.7861328125
-11533.1015625,-8705.45703125,11347.9296875,-8210.341796875,6840.22900390625,2435.04833984375,3738.4033203125,-5770.5244140625,0.0,-3569.9208984375,-1986.8214111328125,-15513.1025390625,0.0,0.0,0.0,-3575.484130859375,1470.2479248046875,11374.9501953125,-0.0,73.90975952148438,6077.28955078125,9509.72265625,7085.80029296875,3050.963134765625,3437.995849609375,-4703.20361328125,-5921.5224609375,6410.28076171875,-1851.7176513671875,-3588.994384765625,9121.1005859375,-3640.651611328125,8666.515625,6067.7529296875,5473.2958984375,7000.76416015625,3190.04052734375,-240.80276489257812,4260.5400390625,-0.0,5039.3740234375,-14472.0078125,3426.074951171875,12312.7294921875,2949.23779296875,-6628.83154296875,4650.75146484375,4755.65576171875,6769.49853515625,3793.239501953125,3356.138916015625,-4295.5078125,-14251.0732421875,-7979.86962890625,2710.024658203125,-1900.196044921875,0.0,-6169.47802734375,0.0,-6353.06005859375,-13288.6572265625,3774.166015625,-8618.83203125,0.0,-16955.533203125,-3262.36083984375,0.0,-7380.64453125,0.0,4785.85595703125,-0.0,-5880.99169921875
-11518.001953125,-8700.6884765625,11341.572265625,-8209.5458984375,6840.22900390625,2437.4326171875,3739.992919921875,-5768.14013671875,0.0,-3562.768310546875,-1995.5634765625,-15511.5126953125,0.0,0.0,0.0,-3572.304931640625,1471.0426025390625,11375.7451171875,-0.0,76.2939453125,6078.87890625,9512.1064453125,7085.80029296875,3052.552490234375,3437.201171875,-4700.02490234375,-5923.1123046875,6415.04931640625,-1854.101806640625,-3585.8154296875,9122.689453125,-3634.293701171875,8663.3369140625,6069.34228515625,5472.50146484375,7000.76416015625,3192.4248046875,-238.4185791015625,4251.79833984375,-0.0,5037.78466796875,-14468.8291015625,3428.459228515625,12315.9091796875,2948.443115234375,-6624.857421875,4645.9833984375,4757.24560546875,6769.49853515625,3794.8291015625,3356.138916015625,-4293.91845703125,-14259.0205078125,-7975.1015625,2706.05078125,-1900.196044921875,0.0,-6167.09375,0.0,-6346.70263671875,-13295.0146484375,3776.55029296875,-8614.0634765625,0.0,-16963.482421875,-3256.003173828125,0.0,-7398.12841796875,0.0,4787.4453125,-0.0,-5878.607421875
-11529.9228515625,-8714.19921875,11340.77734375,-8208.751953125,6838.6396484375,2439.02197265625,3738.4033203125,-5767.34521484375,0.0,-3568.33154296875,-1995.5634765625,-15509.12890625,0.0,0.0,0.0,-3573.099853515625,1469.4532470703125,11375.7451171875,-0.0,75.49921417236328,6078.87890625,9512.9013671875,7085.80029296875,3054.14208984375,3429.25390625,-4695.2568359375,-5926.291015625,6416.638671875,-1862.049072265625,-3585.8154296875,9123.484375,-3645.420166015625,8664.130859375,6070.13720703125,5472.50146484375,7002.353515625,3192.4248046875,-239.2133026123047,4262.12939453125,-0.0,5037.78466796875,-14468.8291015625,3427.66455078125,12317.498046875,2947.648193359375,-6625.65234375,4646.7783203125,4762.80810546875,6767.90869140625,3797.21337890625,3356.138916015625,-4293.91845703125,-14266.9677734375,-7975.1015625,2697.308837890625,-1898.606689453125,0.0,-6163.1201171875,0.0,-6350.67626953125,-13281.5048828125,3776.55029296875,-8615.6533203125,0.0,-16973.814453125,-3251.23486328125,0.0,-7402.10205078125,0.0,4777.908203125,-0.0,-5884.96533203125
-11539.458984375,-8725.3251953125,11336.8037109375,-8215.109375,6833.87158203125,2431.86962890625,3739.197998046875,-5776.88232421875,0.0,-3575.484130859375,-1993.9739990234375,-15514.69140625,0.0,0.0,0.0,-3582.636474609375,1463.0953369140625,11370.9765625,-0.0,74.7044906616211,6073.31591796875,9505.7490234375,7084.2109375,3050.963134765625,3421.306640625,-4701.6142578125,-5929.47021484375,6408.69140625,-1869.20166015625,-3595.35205078125,9118.7158203125,-3655.75146484375,8658.568359375,6062.189453125,5467.73291015625,6997.58544921875,3190.835205078125,-243.98167419433594,4256.56640625,-0.0,5033.81103515625,-14476.7763671875,3426.074951171875,12310.345703125,2947.648193359375,-6630.4208984375,4645.9833984375,4762.80810546875,6762.345703125,3789.265869140625,3356.138916015625,-4301.0712890625,-14263.7890625,-7987.0224609375,2689.361572265625,-1908.9381103515625,0.0,-6177.42529296875,0.0,-6358.62353515625,-13261.6357421875,3770.9873046875,-8620.421875,0.0,-16980.171875,-3257.592529296875,0.0,-7387.796875,0.0,4771.55078125,-0.0,-5892.91259765625
-11537.869140625,-8725.3251953125,11327.2666015625,-8221.466796875,6832.28173828125,2425.51171875,3739.197998046875,-5780.85546875,0.0,-3574.689208984375,-1998.7423095703125,-15527.4072265625,0.0,0.0,0.0,-3586.610107421875,1452.763916015625,11365.4140625,-0.0,75.49921417236328,6065.36865234375,9499.390625,7081.03173828125,3043.810546875,3418.127685546875,-4705.587890625,-5931.0595703125,6399.94970703125,-1874.7647705078125,-3615.22021484375,9112.3583984375,-3663.698974609375,8651.416015625,6055.83203125,5462.16943359375,6993.61181640625,3190.835205078125,-247.16058349609375,4238.28759765625,-0.0,5027.453125,-14482.3388671875,3426.86962890625,12304.783203125,2948.443115234375,-6633.599609375,4634.0625,4753.271484375,6759.16650390625,3779.729248046875,3356.138916015625,-4304.25,-14255.8408203125,-7994.1748046875,2687.77197265625,-1922.448486328125,0.0,-6186.16748046875,0.0,-6360.212890625,-13271.1728515625,3767.013671875,-8622.009765625,0.0,-16991.296875,-3278.25537109375,0.0,-7376.6708984375,0.0,4779.49755859375,-0.0,-5887.349609375
-11518.7958984375,-8722.146484375,11324.8828125,-8223.056640625,6832.28173828125,2423.12744140625,3739.992919921875,-5782.4453125,0.0,-3578.662841796875,-1998.7423095703125,-15532.17578125,0.0,0.0,0.0,-3588.19970703125,1451.9691162109375,11363.029296875,-0.0,74.7044906616211,6064.57373046875,9496.2119140625,7081.82666015625,3041.426513671875,3421.306640625,-4715.12451171875,-5927.880859375,6397.5654296875,-1868.4068603515625,-3619.194091796875,9109.1796875,-3662.904052734375,8648.236328125,6053.44775390625,5462.96435546875,6991.2275390625,3191.630126953125,-248.75006103515625,4231.134765625,-0.0,5025.06884765625,-14483.1337890625,3428.459228515625,12302.3984375,2947.648193359375,-6634.39404296875,4625.3203125,4748.50341796875,6761.55078125,3775.755615234375,3356.138916015625,-4305.83935546875,-14255.046875,-7999.73779296875,2690.951171875,-1932.7799072265625,0.0,-6186.16748046875,0.0,-6363.39208984375,-13287.0673828125,3767.013671875,-8622.009765625,0.0,-16990.50390625,-3291.765869140625,0.0,-7371.90234375,0.0,4778.703125,-0.0,-5888.14404296875
-11499.72265625,-8711.814453125,11327.2666015625,-8219.0830078125,6833.07666015625,2423.92236328125,3737.608642578125,-5785.6240234375,0.0,-3588.19970703125,-1985.2320556640625,-15525.818359375,0.0,0.0,0.0,-3595.35205078125,1455.1480712890625,11365.4140625,-0.0,68.3466567993164,6068.5478515625,9500.185546875,7082.62109375,3042.22119140625,3429.25390625,-4720.68798828125,-5927.0859375,6397.5654296875,-1859.6649169921875,-3606.478515625,9111.5634765625,-3658.930419921875,8649.826171875,6057.42138671875,5465.3486328125,6992.02197265625,3190.04052734375,-251.13424682617188,4230.34033203125,-0.0,5026.65869140625,-14486.3125,3426.074951171875,12301.6044921875,2946.05908203125,-6639.95751953125,4623.73095703125,4753.271484375,6764.72998046875,3777.344970703125,3356.138916015625,-4311.40283203125,-14254.251953125,-7987.81689453125,2699.69287109375,-1927.2169189453125,0.0,-6189.34619140625,0.0,-6372.1337890625,-13283.888671875,3767.013671875,-8625.189453125,0.0,-16977.787109375,-3279.844970703125,0.0,-7395.744140625,0.0,4756.45068359375,-0.0,-5911.19140625
-11502.1064453125,-8719.76171875,11333.625,-8213.5205078125,6834.666015625,2429.4853515625,3737.608642578125,-5782.4453125,0.0,-3588.994384765625,-1982.847900390625,-15514.69140625,0.0,0.0,0.0,-3594.5576171875,1459.91650390625,11369.3876953125,-0.0,65.96247100830078,6070.93212890625,9504.1591796875,7085.80029296875,3046.989501953125,3431.637939453125,-4708.76708984375,-5927.0859375,6402.33349609375,-1859.6649169921875,-3594.5576171875,9117.9208984375,-3654.956787109375,8653.7998046875,6064.57373046875,5469.322265625,6997.58544921875,3191.630126953125,-247.955322265625,4236.6982421875,-0.0,5032.22119140625,-14479.16015625,3426.074951171875,12306.373046875,2946.853515625,-6638.3681640625,4632.47314453125,4762.80810546875,6764.72998046875,3784.49755859375,3356.93359375,-4306.63427734375,-14266.173828125,-7977.48583984375,2701.282470703125,-1904.9644775390625,0.0,-6187.7568359375,0.0,-6369.74951171875,-13288.6572265625,3770.1923828125,-8624.39453125,0.0,-16972.22265625,-3258.38720703125,0.0,-7403.69189453125,0.0,4752.47705078125,-0.0,-5912.78076171875
-11514.02734375,-8720.5576171875,11338.3935546875,-8213.5205078125,6837.8447265625,2431.86962890625,3738.4033203125,-5776.88232421875,0.0,-3585.8154296875,-1981.2584228515625,-15513.1025390625,0.0,0.0,0.0,-3587.405029296875,1463.89013671875,11371.771484375,-0.0,69.93611907958984,6071.7265625,9506.54296875,7086.59521484375,3051.7578125,3432.432861328125,-4702.4091796875,-5924.70166015625,6408.69140625,-1856.4859619140625,-3587.405029296875,9120.3046875,-3650.983154296875,8657.7734375,6066.16357421875,5469.322265625,7000.76416015625,3192.4248046875,-243.98167419433594,4243.8505859375,-0.0,5033.81103515625,-14476.7763671875,3426.074951171875,12311.140625,2946.853515625,-6634.39404296875,4640.42041015625,4758.0400390625,6767.1142578125,3789.265869140625,3357.728271484375,-4301.0712890625,-14273.326171875,-7982.25390625,2704.46142578125,-1903.375,0.0,-6182.19384765625,0.0,-6361.0078125,-13294.2197265625,3774.166015625,-8621.2158203125,0.0,-16971.4296875,-3249.645263671875,0.0,-7400.5126953125,0.0,4757.24560546875,-0.0,-5912.78076171875
-11535.4853515625,-8723.7353515625,11336.8037109375,-8214.314453125,6836.25537109375,2431.86962890625,3739.197998046875,-5777.67724609375,0.0,-3579.45751953125,-1982.847900390625,-15521.84375,0.0,0.0,0.0,-3587.405029296875,1463.89013671875,11370.181640625,-0.0,72.32030487060547,6070.93212890625,9506.54296875,7084.2109375,3050.963134765625,3429.25390625,-4698.435546875,-5924.70166015625,6407.10205078125,-1862.8438720703125,-3588.19970703125,9119.5107421875,-3650.983154296875,8657.7734375,6063.779296875,5467.73291015625,6998.38037109375,3192.4248046875,-244.77639770507812,4243.0556640625,-0.0,5030.6318359375,-14475.9814453125,3427.66455078125,12309.55078125,2945.26416015625,-6632.009765625,4638.83056640625,4758.0400390625,6764.72998046875,3790.060791015625,3356.138916015625,-4301.8662109375,-14286.8359375,-7996.55908203125,2698.103759765625,-1925.6273193359375,0.0,-6184.578125,0.0,-6361.0078125,-13307.73046875,3770.9873046875,-8620.421875,0.0,-16976.197265625,-3252.823974609375,0.0,-7390.97607421875,0.0,4767.57666015625,-0.0,-5896.88623046875
-11563.30078125,-8740.4248046875,11334.4189453125,-8215.904296875,6833.87158203125,2432.6640625,3737.608642578125,-5776.08740234375,0.0,-3577.8681640625,-1992.3846435546875,-15525.0234375,0.0,0.0,0.0,-3585.020751953125,1463.89013671875,11367.7978515625,-0.0,73.90975952148438,6068.5478515625,9505.7490234375,7083.416015625,3049.37353515625,3423.69091796875,-4704.79345703125,-5926.291015625,6408.69140625,-1866.022705078125,-3589.7890625,9115.537109375,-3654.162109375,8656.1845703125,6062.984375,5465.3486328125,6995.201171875,3191.630126953125,-243.98167419433594,4251.79833984375,-0.0,5029.04248046875,-14476.7763671875,3426.074951171875,12310.345703125,2946.05908203125,-6631.21533203125,4636.4462890625,4762.013671875,6761.55078125,3790.85546875,3356.138916015625,-4302.66064453125,-14294.783203125,-7984.63818359375,2694.1298828125,-1924.8326416015625,0.0,-6182.19384765625,0.0,-6363.39208984375,-13310.115234375,3767.80810546875,-8622.009765625,0.0,-16975.40234375,-3259.181884765625,0.0,-7384.6181640625,0.0,4775.52392578125,-0.0,-5882.5810546875
-11560.1220703125,-8733.2724609375,11332.8291015625,-8216.6982421875,6834.666015625,2434.253662109375,3738.4033203125,-5772.90869140625,0.0,-3573.89453125,-1998.7423095703125,-15521.84375,0.0,0.0,0.0,-3577.8681640625,1465.4794921875,11370.9765625,-0.0,77.8833999633789,6068.5478515625,9506.54296875,7084.2109375,3049.37353515625,3424.4853515625,-4707.177734375,-5927.0859375,6411.87060546875,-1866.8175048828125,-3588.19970703125,9116.33203125,-3650.1884765625,8658.568359375,6062.984375,5467.73291015625,6997.58544921875,3193.219482421875,-240.80276489257812,4257.36083984375,-0.0,5029.8369140625,-14477.5703125,3426.86962890625,12312.7294921875,2949.23779296875,-6628.03662109375,4631.67822265625,4758.0400390625,6763.14013671875,3792.44482421875,3356.93359375,-4298.68701171875,-14281.2724609375,-7967.154296875,2693.335205078125,-1905.7591552734375,0.0,-6177.42529296875,0.0,-6357.0341796875,-13301.3720703125,3769.397705078125,-8619.6259765625,0.0,-16978.58203125,-3268.71875,0.0,-7376.6708984375,0.0,4781.8818359375,-0.0,-5880.99169921875
-11521.1796875,-8707.046875,11332.03515625,-8217.494140625,6836.25537109375,2436.637939453125,3740.78759765625,-5768.9345703125,0.0,-3567.53662109375,-1995.5634765625,-15509.9228515625,0.0,0.0,0.0,-3571.51025390625,1465.4794921875,11372.56640625,-0.0,83.44650268554688,6070.13720703125,9508.1328125,7086.59521484375,3052.552490234375,3422.896240234375,-4704.79345703125,-5927.0859375,6416.638671875,-1869.20166015625,-3583.43115234375,9118.7158203125,-3648.598876953125,8656.978515625,6062.189453125,5468.52734375,6999.1748046875,3194.80908203125,-237.6238555908203,4253.3876953125,-0.0,5029.8369140625,-14478.3662109375,3430.048583984375,12315.9091796875,2950.827392578125,-6623.26806640625,4628.49951171875,4759.6298828125,6763.14013671875,3797.21337890625,3359.31787109375,-4292.3291015625,-14260.609375,-7952.849609375,2690.951171875,-1889.0699462890625,0.0,-6172.6572265625,0.0,-6349.8818359375,-13296.6044921875,3770.1923828125,-8614.857421875,0.0,-16984.14453125,-3261.566162109375,0.0,-7363.16064453125,0.0,4796.18701171875,-0.0,-5868.27587890625
-11504.4912109375,-8694.3310546875,11335.2138671875,-8215.904296875,6838.6396484375,2439.02197265625,3743.96630859375,-5766.55078125,0.0,-3566.741943359375,-1980.4637451171875,-15499.591796875,0.0,0.0,0.0,-3569.126220703125,1464.684814453125,11374.9501953125,-0.0,85.03595733642578,6072.52099609375,9511.3115234375,7090.568359375,3054.936767578125,3428.459228515625,-4700.02490234375,-5923.1123046875,6419.8173828125,-1861.25439453125,-3579.45751953125,9121.1005859375,-3651.778076171875,8656.978515625,6063.779296875,5470.1171875,7003.1484375,3194.014404296875,-234.44493103027344,4241.46630859375,-0.0,5033.01611328125,-14478.3662109375,3430.84326171875,12320.677734375,2950.827392578125,-6621.6787109375,4631.67822265625,4762.80810546875,6768.70361328125,3800.39208984375,3359.31787109375,-4288.35546875,-14266.173828125,-7952.05419921875,2698.103759765625,-1883.5068359375,0.0,-6168.68359375,0.0,-6347.49755859375,-13287.8623046875,3773.371337890625,-8610.884765625,0.0,-16979.375,-3251.23486328125,0.0,-7364.75,0.0,4799.3662109375,-0.0,-5866.6865234375
-11510.8486328125,-8693.5361328125,11332.8291015625,-8215.904296875,6841.02392578125,2440.611572265625,3743.171630859375,-5765.75634765625,0.0,-3564.357666015625,-1974.1058349609375,-15494.8232421875,0.0,0.0,0.0,-3564.357666015625,1463.89013671875,11375.7451171875,-0.0,84.2412338256836,6072.52099609375,9509.72265625,7090.568359375,3057.32080078125,3429.25390625,-4698.435546875,-5919.93310546875,6422.20166015625,-1859.6649169921875,-3577.0732421875,9121.1005859375,-3654.956787109375,8654.5947265625,6062.189453125,5472.50146484375,7000.76416015625,3195.603515625,-232.0607452392578,4236.6982421875,-0.0,5033.01611328125,-14482.3388671875,3430.84326171875,12323.0615234375,2950.827392578125,-6620.0888671875,4630.0888671875,4764.39794921875,6770.29296875,3802.7763671875,3360.112548828125,-4287.56103515625,-14276.5048828125,-7958.412109375,2699.69287109375,-1885.8909912109375,0.0,-6165.50439453125,0.0,-6342.72900390625,-13283.888671875,3774.166015625,-8609.294921875,0.0,-16979.375,-3251.23486328125,0.0,-7363.955078125,0.0,4806.5185546875,-0.0,-5859.53369140625
-11506.0810546875,-8695.919921875,11328.0615234375,-8215.109375,6841.818359375,2443.79052734375,3743.171630859375,-5762.5771484375,0.0,-3565.15234375,-1989.20556640625,-15490.0546875,0.0,0.0,0.0,-3561.178955078125,1462.3006591796875,11378.12890625,-0.0,83.44650268554688,6072.52099609375,9509.72265625,7091.36328125,3057.32080078125,3428.459228515625,-4695.2568359375,-5922.3173828125,6427.7646484375,-1862.8438720703125,-3572.304931640625,9121.1005859375,-3656.54638671875,8653.7998046875,6062.189453125,5474.0908203125,7001.55859375,3197.98779296875,-232.0607452392578,4231.134765625,-0.0,5031.4267578125,-14481.544921875,3432.432861328125,12327.03515625,2951.6220703125,-6620.0888671875,4626.90966796875,4769.16650390625,6770.29296875,3807.544677734375,3360.112548828125,-4283.5869140625,-14281.2724609375,-7963.97509765625,2698.8984375,-1884.301513671875,0.0,-6163.9150390625,0.0,-6341.93408203125,-13276.736328125,3778.9345703125,-8608.5,0.0,-16980.966796875,-3244.082275390625,0.0,-7364.75,0.0,4807.3134765625,-0.0,-5861.12353515625
-11507.669921875,-8701.4833984375,11324.087890625,-8211.9306640625,6836.25537109375,2443.79052734375,3742.376953125,-5764.96142578125,0.0,-3571.51025390625,-2001.92138671875,-15489.2607421875,0.0,0.0,0.0,-3567.53662109375,1460.711181640625,11377.3349609375,-0.0,80.26758575439453,6071.7265625,9510.517578125,7088.97900390625,3056.526123046875,3418.92236328125,-4696.05126953125,-5927.0859375,6427.7646484375,-1873.969970703125,-3574.689208984375,9121.1005859375,-3658.930419921875,8652.2099609375,6062.189453125,5471.70654296875,7003.94287109375,3194.014404296875,-234.44493103027344,4223.982421875,-0.0,5027.453125,-14483.9287109375,3427.66455078125,12325.4462890625,2951.6220703125,-6624.857421875,4619.75732421875,4772.34521484375,6766.3193359375,3805.955078125,3358.523193359375,-4286.76611328125,-14285.2470703125,-7966.359375,2686.977294921875,-1887.4803466796875,0.0,-6169.47802734375,0.0,-6349.8818359375,-13275.9404296875,3776.55029296875,-8612.4736328125,0.0,-16985.734375,-3242.49267578125,0.0,-7371.107421875,0.0,4790.6240234375,-0.0,-5880.197265625
-11537.0751953125,-8716.5830078125,11320.908203125,-8212.7255859375,6830.6923828125,2439.816650390625,3739.992919921875,-5771.31884765625,0.0,-3577.8681640625,-1996.358154296875,-15500.38671875,0.0,0.0,0.0,-3576.27880859375,1459.1217041015625,11371.771484375,-0.0,73.11502838134766,6066.16357421875,9507.3388671875,7085.00537109375,3052.552490234375,3414.94873046875,-4700.8193359375,-5927.880859375,6419.02294921875,-1876.354248046875,-3594.5576171875,9117.126953125,-3661.314697265625,8648.236328125,6058.21630859375,5465.3486328125,6999.1748046875,3192.4248046875,-236.82911682128906,4233.51904296875,-0.0,5024.2744140625,-14490.287109375,3426.074951171875,12319.087890625,2949.23779296875,-6630.4208984375,4618.16796875,4770.755859375,6759.16650390625,3800.39208984375,3356.138916015625,-4293.91845703125,-14278.888671875,-7970.3330078125,2684.59326171875,-1897.8118896484375,0.0,-6177.42529296875,0.0,-6357.82861328125,-13281.5048828125,3769.397705078125,-8617.2421875,0.0,-16993.681640625,-3247.260986328125,0.0,-7380.64453125,0.0,4775.52392578125,-0.0,-5893.70703125
-11576.0166015625,-8724.5302734375,11323.29296875,-8212.7255859375,6830.6923828125,2437.4326171875,3739.197998046875,-5772.11376953125,0.0,-3578.662841796875,-1990.00048828125,-15505.154296875,0.0,0.0,0.0,-3573.89453125,1459.91650390625,11372.56640625,-0.0,73.90975952148438,6066.9580078125,9506.54296875,7085.00537109375,3051.7578125,3419.717041015625,-4705.587890625,-5925.49658203125,6415.84375,-1873.969970703125,-3600.915283203125,9117.126953125,-3656.54638671875,8649.03125,6059.0107421875,5466.14306640625,6997.58544921875,3194.014404296875,-238.4185791015625,4235.9033203125,-0.0,5025.06884765625,-14489.4912109375,3427.66455078125,12315.9091796875,2950.032470703125,-6630.4208984375,4625.3203125,4770.755859375,6760.755859375,3795.623779296875,3356.93359375,-4293.12353515625,-14283.6572265625,-7979.0751953125,2686.977294921875,-1900.196044921875,0.0,-6172.6572265625,0.0,-6356.2392578125,-13279.9150390625,3770.1923828125,-8617.2421875,0.0,-17001.62890625,-3250.43994140625,0.0,-7381.439453125,0.0,4782.6767578125,-0.0,-5889.73388671875
-11579.990234375,-8730.09375,11329.650390625,-8213.5205078125,6833.87158203125,2435.84326171875,3739.197998046875,-5769.7294921875,0.0,-3575.484130859375,-1997.153076171875,-15506.744140625,0.0,0.0,0.0,-3569.9208984375,1463.0953369140625,11371.771484375,-0.0,75.49921417236328,6068.5478515625,9505.7490234375,7085.80029296875,3050.963134765625,3421.306640625,-4708.76708984375,-5926.291015625,6418.22802734375,-1869.9964599609375,-3592.17333984375,9117.9208984375,-3647.80419921875,8652.2099609375,6058.21630859375,5467.73291015625,6997.58544921875,3194.014404296875,-240.00804138183594,4241.46630859375,-0.0,5029.04248046875,-14491.0810546875,3428.459228515625,12317.498046875,2950.032470703125,-6628.83154296875,4623.73095703125,4767.57666015625,6761.55078125,3794.0341796875,3358.523193359375,-4291.5341796875,-14297.16796875,-7998.14892578125,2690.951171875,-1896.222412109375,0.0,-6167.888671875,0.0,-6351.470703125,-13295.0146484375,3771.781982421875,-8615.6533203125,0.0,-17017.5234375,-3254.41357421875,0.0,-7378.26025390625,0.0,4790.6240234375,-0.0,-5880.99169921875
-11545.8173828125,-8737.24609375,11336.0087890625,-8211.9306640625,6837.0498046875,2436.637939453125,3740.78759765625,-5771.31884765625,0.0,-3578.662841796875,-1996.358154296875,-15503.5654296875,0.0,0.0,0.0,-3571.51025390625,1467.8636474609375,11374.9501953125,-0.0,73.90975952148438,6071.7265625,9508.1328125,7087.3896484375,3053.347412109375,3426.86962890625,-4704.79345703125,-5927.0859375,6418.22802734375,-1862.8438720703125,-3588.994384765625,9121.89453125,-3645.420166015625,8660.1572265625,6063.779296875,5471.70654296875,6999.9697265625,3193.219482421875,-239.2133026123047,4251.00341796875,-0.0,5033.81103515625,-14487.90234375,3429.25390625,12318.2939453125,2949.23779296875,-6632.8046875,4628.49951171875,4771.55078125,6763.93505859375,3796.41845703125,3359.31787109375,-4291.5341796875,-14294.783203125,-7991.791015625,2698.8984375,-1893.04345703125,0.0,-6168.68359375,0.0,-6353.85498046875,-13306.140625,3772.57666015625,-8615.6533203125,0.0,-17012.75390625,-3250.43994140625,0.0,-7379.85009765625,0.0,4785.06103515625,-0.0,-5881.7861328125
-11522.76953125,-8737.24609375,11342.3662109375,-8206.3671875,6841.818359375,2442.200927734375,3740.78759765625,-5767.34521484375,0.0,-3573.89453125,-1988.410888671875,-15498.001953125,0.0,0.0,0.0,-3566.741943359375,1471.83740234375,11379.71875,-0.0,76.2939453125,6076.49462890625,9513.6953125,7089.7734375,3056.526123046875,3434.022216796875,-4701.6142578125,-5926.291015625,6422.99658203125,-1857.28076171875,-3580.25244140625,9127.4580078125,-3648.598876953125,8665.720703125,6070.93212890625,5474.88525390625,7003.94287109375,3194.014404296875,-235.2396697998047,4260.5400390625,-0.0,5040.9638671875,-14485.5185546875,3430.048583984375,12321.47265625,2949.23779296875,-6630.4208984375,4638.83056640625,4777.11328125,6771.087890625,3801.981689453125,3358.523193359375,-4287.56103515625,-14271.736328125,-7978.2802734375,2704.46142578125,-1889.8646240234375,0.0,-6165.50439453125,0.0,-6350.67626953125,-13325.21484375,3775.755615234375,-8614.0634765625,0.0,-16990.50390625,-3246.46630859375,0.0,-7361.57080078125,0.0,4794.59765625,-0.0,-5873.8388671875
-11515.6171875,-8730.09375,11343.9560546875,-8203.9833984375,6846.5869140625,2444.585205078125,3742.376953125,-5765.75634765625,0.0,-3571.51025390625,-1990.00048828125,-15489.2607421875,0.0,0.0,0.0,-3563.56298828125,1472.632080078125,11382.1025390625,-0.0,79.47286224365234,6082.05810546875,9516.875,7092.95263671875,3056.526123046875,3435.61181640625,-4697.64111328125,-5923.90673828125,6425.380859375,-1856.4859619140625,-3569.9208984375,9128.2529296875,-3648.598876953125,8666.515625,6073.31591796875,5478.06396484375,7005.53271484375,3197.193115234375,-232.85548400878906,4254.9765625,-0.0,5043.34765625,-14483.1337890625,3430.048583984375,12324.650390625,2950.827392578125,-6627.24169921875,4639.62548828125,4781.8818359375,6775.85595703125,3805.16064453125,3360.112548828125,-4285.1767578125,-14259.0205078125,-7967.154296875,2703.666748046875,-1888.275146484375,0.0,-6163.1201171875,0.0,-6347.49755859375,-13302.9619140625,3778.9345703125,-8610.0888671875,0.0,-16975.40234375,-3244.082275390625,0.0,-7354.41845703125,0.0,4804.13427734375,-0.0,-5871.45458984375
-11528.3330078125,-8718.1728515625,11338.3935546875,-8203.1884765625,6844.99755859375,2446.174560546875,3740.78759765625,-5764.16650390625,0.0,-3569.9208984375,-1993.1793212890625,-15484.4921875,0.0,0.0,0.0,-3560.384033203125,1471.0426025390625,11380.513671875,-0.0,79.47286224365234,6079.673828125,9516.080078125,7092.15771484375,3058.11572265625,3430.84326171875,-4693.6669921875,-5922.3173828125,6427.7646484375,-1859.6649169921875,-3564.357666015625,9128.2529296875,-3654.956787109375,8664.130859375,6071.7265625,5477.26953125,7004.73779296875,3195.603515625,-232.85548400878906,4246.23486328125,-0.0,5040.9638671875,-14481.544921875,3427.66455078125,12327.03515625,2949.23779296875,-6626.447265625,4631.67822265625,4783.4716796875,6773.4716796875,3807.544677734375,3358.523193359375,-4281.20263671875,-14266.173828125,-7964.7705078125,2698.8984375,-1885.8909912109375,0.0,-6160.736328125,0.0,-6343.5234375,-13274.3525390625,3778.9345703125,-8610.884765625,0.0,-16977.787109375,-3240.1083984375,0.0,-7350.44482421875,0.0,4810.4921875,-0.0,-5867.4814453125
-11538.6650390625,-8711.0205078125,11334.4189453125,-8207.162109375,6840.22900390625,2444.585205078125,3739.992919921875,-5764.96142578125,0.0,-3572.304931640625,-1994.768798828125,-15486.0810546875,0.0,0.0,0.0,-3563.56298828125,1470.2479248046875,11379.71875,-0.0,77.08867645263672,6076.49462890625,9513.6953125,7090.568359375,3058.11572265625,3426.86962890625,-4694.4619140625,-5922.3173828125,6425.380859375,-1864.433349609375,-3564.357666015625,9127.4580078125,-3654.956787109375,8660.1572265625,6070.13720703125,5474.88525390625,7005.53271484375,3195.603515625,-232.85548400878906,4241.46630859375,-0.0,5036.98974609375,-14483.1337890625,3428.459228515625,12323.0615234375,2948.443115234375,-6629.6259765625,4627.70458984375,4779.49755859375,6768.70361328125,3804.365966796875,3357.728271484375,-4284.3818359375,-14282.0673828125,-7963.97509765625,2698.103759765625,-1889.0699462890625,0.0,-6167.09375,0.0,-6345.11328125,-13274.3525390625,3777.344970703125,-8613.2685546875,0.0,-16980.966796875,-3248.8505859375,0.0,-7358.39208984375,0.0,4800.955078125,-0.0,-5877.01806640625
-11528.3330078125,-8707.046875,11333.625,-8208.751953125,6835.46044921875,2444.585205078125,3740.78759765625,-5764.16650390625,0.0,-3569.126220703125,-1999.5372314453125,-15486.0810546875,0.0,0.0,0.0,-3562.768310546875,1467.8636474609375,11379.71875,-0.0,77.08867645263672,6074.9052734375,9513.6953125,7088.97900390625,3058.910400390625,3421.306640625,-4694.4619140625,-5926.291015625,6426.17578125,-1870.7911376953125,-3563.56298828125,9125.0732421875,-3652.57275390625,8659.36328125,6072.52099609375,5475.6796875,7005.53271484375,3194.80908203125,-231.26602172851562,4237.4931640625,-0.0,5033.01611328125,-14479.955078125,3428.459228515625,12323.8564453125,2949.23779296875,-6627.24169921875,4626.90966796875,4776.31884765625,6763.14013671875,3805.955078125,3359.31787109375,-4283.5869140625,-14288.42578125,-7954.43798828125,2692.54052734375,-1885.09619140625,0.0,-6163.1201171875,0.0,-6341.13916015625,-13275.146484375,3776.55029296875,-8610.884765625,0.0,-16981.759765625,-3246.46630859375,0.0,-7356.80224609375,0.0,4802.544921875,-0.0,-5877.81298828125
-11523.564453125,-8706.251953125,11329.650390625,-8208.751953125,6831.4873046875,2439.02197265625,3737.608642578125,-5768.9345703125,0.0,-3576.27880859375,-2004.3055419921875,-15490.0546875,0.0,0.0,0.0,-3567.53662109375,1464.684814453125,11374.15625,-0.0,74.7044906616211,6070.13720703125,9512.1064453125,7085.00537109375,3054.14208984375,3414.94873046875,-4693.6669921875,-5928.67529296875,6419.8173828125,-1873.969970703125,-3566.741943359375,9120.3046875,-3655.75146484375,8657.7734375,6068.5478515625,5470.91162109375,7002.353515625,3192.4248046875,-236.82911682128906,4246.23486328125,-0.0,5028.248046875,-14479.955078125,3426.074951171875,12320.677734375,2946.853515625,-6630.4208984375,4626.90966796875,4771.55078125,6758.3720703125,3801.981689453125,3356.93359375,-4289.9453125,-14291.6044921875,-7949.669921875,2686.1826171875,-1883.5068359375,0.0,-6166.29931640625,0.0,-6351.470703125,-13297.3984375,3772.57666015625,-8616.447265625,0.0,-16986.529296875,-3249.645263671875,0.0,-7361.57080078125,0.0,4795.392578125,-0.0,-5876.22314453125
-11560.9169921875,-8707.046875,11330.4453125,-8209.5458984375,6832.28173828125,2439.816650390625,3738.4033203125,-5769.7294921875,0.0,-3576.27880859375,-2009.073974609375,-15495.6181640625,0.0,0.0,0.0,-3569.9208984375,1469.4532470703125,11374.15625,-0.0,73.11502838134766,6072.52099609375,9512.9013671875,7086.59521484375,3053.347412109375,3411.769775390625,-4691.28271484375,-5927.880859375,6419.02294921875,-1878.7384033203125,-3569.126220703125,9122.689453125,-3647.009521484375,8659.36328125,6068.5478515625,5470.1171875,7002.353515625,3193.219482421875,-236.82911682128906,4263.71923828125,-0.0,5029.8369140625,-14479.16015625,3426.074951171875,12319.8828125,2947.648193359375,-6628.03662109375,4629.2939453125,4773.14013671875,6759.96142578125,3801.186767578125,3356.138916015625,-4291.5341796875,-14297.9619140625,-7952.849609375,2683.798583984375,-1878.7384033203125,0.0,-6169.47802734375,0.0,-6351.470703125,-13311.7041015625,3771.781982421875,-8615.6533203125,0.0,-16991.296875,-3261.566162109375,0.0,-7363.955078125,0.0,4793.802734375,-0.0,-5877.81298828125
-11571.248046875,-8711.814453125,11332.8291015625,-8206.3671875,6835.46044921875,2440.611572265625,3740.78759765625,-5767.34521484375,0.0,-3573.89453125,-2006.6898193359375,-15489.2607421875,0.0,0.0,0.0,-3570.715576171875,1471.0426025390625,11378.12890625,-0.0,75.49921417236328,6073.31591796875,9513.6953125,7088.1845703125,3054.14208984375,3414.154052734375,-4689.693359375,-5924.70166015625,6421.4072265625,-1875.5594482421875,-3565.947265625,9125.0732421875,-3647.009521484375,8660.1572265625,6070.93212890625,5472.50146484375,7003.1484375,3194.80908203125,-235.2396697998047,4254.18212890625,-0.0,5033.01611328125,-14479.16015625,3427.66455078125,12321.47265625,2950.032470703125,-6626.447265625,4632.47314453125,4778.703125,6763.14013671875,3805.16064453125,3356.93359375,-4289.150390625,-14317.0361328125,-7961.5908203125,2684.59326171875,-1878.7384033203125,0.0,-6169.47802734375,0.0,-6349.8818359375,-13312.4990234375,3774.166015625,-8614.857421875,0.0,-16989.70703125,-3253.618896484375,0.0,-7365.544921875,0.0,4794.59765625,-0.0,-5879.40234375
-11548.99609375,-8717.3779296875,11330.4453125,-8208.751953125,6837.0498046875,2440.611572265625,3742.376953125,-5766.55078125,0.0,-3574.689208984375,-2005.1002197265625,-15485.287109375,0.0,0.0,0.0,-3570.715576171875,1466.2742919921875,11377.3349609375,-0.0,77.08867645263672,6070.93212890625,9510.517578125,7088.97900390625,3053.347412109375,3419.717041015625,-4692.07763671875,-5923.1123046875,6422.99658203125,-1870.7911376953125,-3565.947265625,9121.89453125,-3656.54638671875,8656.1845703125,6066.16357421875,5470.91162109375,7002.353515625,3194.80908203125,-235.2396697998047,4238.28759765625,-0.0,5033.01611328125,-14481.544921875,3427.66455078125,12320.677734375,2950.032470703125,-6627.24169921875,4628.49951171875,4775.52392578125,6764.72998046875,3804.365966796875,3358.523193359375,-4290.73974609375,-14302.73046875,-7970.3330078125,2690.951171875,-1888.275146484375,0.0,-6169.47802734375,0.0,-6349.8818359375,-13295.0146484375,3774.960693359375,-8614.0634765625,0.0,-16987.32421875,-3240.1083984375,0.0,-7370.31298828125,0.0,4790.6240234375,-0.0,-5880.197265625
-11543.43359375,-8720.5576171875,11326.47265625,-8215.904296875,6833.07666015625,2438.227294921875,3739.992919921875,-5769.7294921875,0.0,-3574.689208984375,-2006.6898193359375,-15489.2607421875,0.0,0.0,0.0,-3570.715576171875,1461.505859375,11373.3603515625,-0.0,74.7044906616211,6067.7529296875,9505.7490234375,7086.59521484375,3050.963134765625,3418.92236328125,-4698.435546875,-5924.70166015625,6419.02294921875,-1871.5858154296875,-3574.689208984375,9117.9208984375,-3664.49365234375,8652.2099609375,6059.80517578125,5466.93798828125,6997.58544921875,3194.014404296875,-236.82911682128906,4238.28759765625,-0.0,5029.8369140625,-14490.287109375,3426.86962890625,12318.2939453125,2948.443115234375,-6630.4208984375,4625.3203125,4766.7822265625,6762.345703125,3800.39208984375,3357.728271484375,-4292.3291015625,-14295.578125,-7972.71728515625,2689.361572265625,-1901.7855224609375,0.0,-6171.8623046875,0.0,-6351.470703125,-13283.888671875,3773.371337890625,-8614.0634765625,0.0,-16992.091796875,-3248.0556640625,0.0,-7375.8759765625,0.0,4790.6240234375,-0.0,-5881.7861328125
-11546.611328125,-8723.7353515625,11320.1142578125,-8225.44140625,6827.51318359375,2430.280029296875,3739.992919921875,-5774.498046875,0.0,-3576.27880859375,-2017.021240234375,-15495.6181640625,0.0,0.0,0.0,-3573.099853515625,1451.9691162109375,11365.4140625,-0.0,74.7044906616211,6059.0107421875,9496.2119140625,7081.82666015625,3046.19482421875,3414.154052734375,-4708.76708984375,-5927.0859375,6414.2548828125,-1877.14892578125,-3585.8154296875,9108.3837890625,-3669.261962890625,8643.4677734375,6051.8583984375,5461.375,6991.2275390625,3193.219482421875,-242.39222717285156,4217.62451171875,-0.0,5023.4794921875,-14499.0283203125,3425.2802734375,12312.7294921875,2946.05908203125,-6634.39404296875,4616.57861328125,4757.24560546875,6756.78271484375,3793.239501953125,3356.93359375,-4295.5078125,-14309.0888671875,-7975.89599609375,2684.59326171875,-1913.7064208984375,0.0,-6175.8359375,0.0,-6352.265625,-13291.8359375,3767.80810546875,-8616.447265625,0.0,-17003.216796875,-3255.208251953125,0.0,-7382.23388671875,0.0,4793.00830078125,-0.0,-5879.40234375
-11545.8173828125,-8728.50390625,11315.345703125,-8229.4150390625,6826.71875,2427.10107421875,3740.78759765625,-5775.29296875,0.0,-3574.689208984375,-2024.1737060546875,-15501.9755859375,0.0,0.0,0.0,-3573.099853515625,1446.406005859375,11362.2353515625,-0.0,76.2939453125,6055.83203125,9493.828125,7079.4423828125,3044.605224609375,3408.591064453125,-4711.1513671875,-5927.880859375,6411.07568359375,-1883.5068359375,-3592.17333984375,9105.205078125,-3674.824951171875,8638.69921875,6047.88427734375,5459.78564453125,6988.84326171875,3192.4248046875,-243.18695068359375,4210.47216796875,-0.0,5017.916015625,-14500.6181640625,3425.2802734375,12311.140625,2948.443115234375,-6634.39404296875,4607.0419921875,4753.271484375,6755.193359375,3791.650146484375,3356.93359375,-4297.09765625,-14327.3671875,-7980.6640625,2677.440673828125,-1914.501220703125,0.0,-6173.45166015625,0.0,-6349.8818359375,-13298.98828125,3763.834716796875,-8615.6533203125,0.0,-17011.166015625,-3255.208251953125,0.0,-7378.26025390625,0.0,4796.98193359375,-0.0,-5877.01806640625
-11540.25390625,-8732.478515625,11315.345703125,-8223.8515625,6827.51318359375,2428.690673828125,3739.992919921875,-5774.498046875,0.0,-3575.484130859375,-2020.994873046875,-15498.7978515625,0.0,0.0,0.0,-3574.689208984375,1449.5849609375,11362.2353515625,-0.0,75.49921417236328,6056.626953125,9497.0068359375,7079.4423828125,3043.810546875,3407.00146484375,-4707.97216796875,-5929.47021484375,6411.87060546875,-1883.5068359375,-3592.968017578125,9105.205078125,-3670.8515625,8638.69921875,6051.0634765625,5459.78564453125,6990.4326171875,3192.4248046875,-243.18695068359375,4212.0615234375,-0.0,5018.7109375,-14494.259765625,3425.2802734375,12311.935546875,2949.23779296875,-6633.599609375,4605.4521484375,4758.0400390625,6755.98779296875,3793.239501953125,3356.138916015625,-4295.5078125,-14325.7783203125,-7975.1015625,2675.85107421875,-1906.5538330078125,0.0,-6171.8623046875,0.0,-6351.470703125,-13298.1943359375,3765.424072265625,-8615.6533203125,0.0,-17006.396484375,-3249.645263671875,0.0,-7369.51806640625,0.0,4793.802734375,-0.0,-5882.5810546875
-11541.048828125,-8734.8623046875,11306.603515625,-8222.2626953125,6822.74462890625,2429.4853515625,3740.78759765625,-5772.11376953125,0.0,-3571.51025390625,-2022.584228515625,-15498.001953125,0.0,0.0,0.0,-3572.304931640625,1448.7901611328125,11359.0556640625,-0.0,78.67813110351562,6051.8583984375,9494.6220703125,7077.05810546875,3044.605224609375,3401.4384765625,-4706.3828125,-5931.0595703125,6415.04931640625,-1887.4803466796875,-3600.12060546875,9103.6162109375,-3668.46728515625,8635.5205078125,6051.8583984375,5455.01708984375,6990.4326171875,3192.4248046875,-242.39222717285156,4208.8828125,-0.0,5013.14794921875,-14491.0810546875,3425.2802734375,12311.935546875,2949.23779296875,-6630.4208984375,4601.478515625,4759.6298828125,6750.4248046875,3792.44482421875,3358.523193359375,-4295.5078125,-14307.4990234375,-7980.6640625,2672.67236328125,-1900.9908447265625,0.0,-6168.68359375,0.0,-6346.70263671875,-13330.77734375,3765.424072265625,-8614.857421875,0.0,-17014.345703125,-3242.49267578125,0.0,-7360.7763671875,0.0,4796.98193359375,-0.0,-5870.66015625
-11547.40625,-8734.8623046875,11305.0146484375,-8223.8515625,6820.36083984375,2427.895751953125,3739.197998046875,-5772.90869140625,0.0,-3569.126220703125,-2025.7633056640625,-15501.181640625,0.0,0.0,0.0,-3569.9208984375,1446.406005859375,11356.6708984375,-0.0,80.26758575439453,6049.47412109375,9493.828125,7076.263671875,3043.810546875,3399.05419921875,-4705.587890625,-5933.443359375,6412.6650390625,-1889.8646240234375,-3600.915283203125,9102.02734375,-3670.056640625,8633.13671875,6051.0634765625,5453.427734375,6990.4326171875,3191.630126953125,-241.5974884033203,4208.087890625,-0.0,5009.96923828125,-14490.287109375,3424.4853515625,12311.140625,2948.443115234375,-6628.83154296875,4599.88916015625,4759.6298828125,6747.24560546875,3790.060791015625,3357.728271484375,-4295.5078125,-14310.677734375,-7994.1748046875,2671.877685546875,-1920.0643310546875,0.0,-6168.68359375,0.0,-6343.5234375,-13345.8779296875,3763.834716796875,-8615.6533203125,0.0,-17035.0078125,-3237.724365234375,0.0,-7357.59716796875,0.0,4796.98193359375,-0.0,-5871.45458984375
-11556.943359375,-8733.2724609375,11304.2197265625,-8220.6728515625,6820.36083984375,2427.10107421875,3739.197998046875,-5775.29296875,0.0,-3570.715576171875,-2022.584228515625,-15501.9755859375,0.0,0.0,0.0,-3574.689208984375,1445.611328125,11359.0556640625,-0.0,78.67813110351562,6051.0634765625,9493.828125,7077.05810546875,3043.015625,3403.02783203125,-4705.587890625,-5932.64892578125,6411.07568359375,-1886.6856689453125,-3587.405029296875,9102.02734375,-3674.0302734375,8632.3427734375,6051.0634765625,5453.427734375,6988.04833984375,3191.630126953125,-244.77639770507812,4210.47216796875,-0.0,5009.96923828125,-14490.287109375,3425.2802734375,12312.7294921875,2946.853515625,-6631.21533203125,4602.2734375,4766.7822265625,6749.6298828125,3788.47119140625,3356.138916015625,-4297.89208984375,-14317.830078125,-7985.4326171875,2675.056396484375,-1926.422119140625,0.0,-6171.06787109375,0.0,-6349.0869140625,-13319.6513671875,3761.450439453125,-8618.037109375,0.0,-17027.05859375,-3244.082275390625,0.0,-7363.955078125,0.0,4797.77685546875,-0.0,-5875.4287109375
-11575.2216796875,-8734.8623046875,11314.5517578125,-8217.494140625,6827.51318359375,2432.6640625,3742.376953125,-5772.11376953125,0.0,-3571.51025390625,-2024.1737060546875,-15494.8232421875,0.0,0.0,0.0,-3574.689208984375,1451.9691162109375,11363.029296875,-0.0,77.8833999633789,6058.21630859375,9497.8017578125,7080.23681640625,3046.989501953125,3407.796142578125,-4700.8193359375,-5927.0859375,6412.6650390625,-1883.5068359375,-3571.51025390625,9109.1796875,-3668.46728515625,8640.2890625,6058.21630859375,5459.78564453125,6992.02197265625,3194.80908203125,-242.39222717285156,4221.59814453125,-0.0,5017.916015625,-14487.107421875,3427.66455078125,12315.1142578125,2949.23779296875,-6628.83154296875,4617.373046875,4769.16650390625,6754.3984375,3792.44482421875,3358.523193359375,-4297.09765625,-14332.134765625,-7972.71728515625,2679.82470703125,-1908.1434326171875,0.0,-6168.68359375,0.0,-6350.67626953125,-13287.0673828125,3766.218994140625,-8615.6533203125,0.0,-16996.861328125,-3242.49267578125,0.0,-7367.13427734375,0.0,4796.18701171875,-0.0,-5879.40234375
-11603.0380859375,-8737.24609375,11323.29296875,-8219.0830078125,6829.10302734375,2433.458984375,3740.78759765625,-5770.5244140625,0.0,-3566.741943359375,-2044.8367919921875,-15494.029296875,0.0,0.0,0.0,-3570.715576171875,1455.9427490234375,11363.029296875,-0.0,80.26758575439453,6060.60009765625,9499.390625,7081.03173828125,3048.578857421875,3403.82275390625,-4700.8193359375,-5928.67529296875,6415.84375,-1885.8909912109375,-3565.947265625,9111.5634765625,-3666.0830078125,8645.0576171875,6060.60009765625,5462.16943359375,6995.201171875,3195.603515625,-241.5974884033203,4226.36669921875,-0.0,5021.89013671875,-14487.90234375,3426.86962890625,12315.1142578125,2948.443115234375,-6626.447265625,4628.49951171875,4764.39794921875,6755.98779296875,3794.8291015625,3359.31787109375,-4293.12353515625,-14344.8515625,-7971.12744140625,2676.64599609375,-1897.01708984375,0.0,-6167.888671875,0.0,-6348.2919921875,-13284.68359375,3767.80810546875,-8613.2685546875,0.0,-16999.244140625,-3248.0556640625,0.0,-7363.16064453125,0.0,4796.98193359375,-0.0,-5875.4287109375
-11599.8583984375,-8749.1669921875,11315.345703125,-8223.8515625,6820.36083984375,2425.51171875,3737.608642578125,-5775.29296875,0.0,-3569.126220703125,-2054.37353515625,-15503.5654296875,0.0,0.0,0.0,-3569.126220703125,1448.7901611328125,11359.0556640625,-0.0,77.8833999633789,6053.44775390625,9493.033203125,7076.263671875,3043.015625,3399.05419921875,-4707.97216796875,-5932.64892578125,6410.28076171875,-1889.8646240234375,-3576.27880859375,9104.4111328125,-3678.798583984375,8638.69921875,6051.8583984375,5456.6064453125,6988.04833984375,3190.835205078125,-243.98167419433594,4222.39306640625,-0.0,5013.14794921875,-14495.849609375,3423.69091796875,12309.55078125,2947.648193359375,-6628.03662109375,4612.6044921875,4765.9873046875,6748.8349609375,3789.265869140625,3356.138916015625,-4295.5078125,-14343.26171875,-7983.04833984375,2670.2880859375,-1900.196044921875,0.0,-6172.6572265625,0.0,-6347.49755859375,-13314.8828125,3763.039794921875,-8614.857421875,0.0,-17011.166015625,-3259.181884765625,0.0,-7359.1865234375,0.0,4803.33935546875,-0.0,-5873.04443359375
-11579.990234375,-8756.3203125,11305.0146484375,-8231.00390625,6817.9765625,2422.332763671875,3736.813720703125,-5779.2666015625,0.0,-3570.715576171875,-2038.4788818359375,-15505.9501953125,0.0,0.0,0.0,-3571.51025390625,1442.432373046875,11355.08203125,-0.0,78.67813110351562,6048.67919921875,9489.853515625,7073.08447265625,3038.247314453125,3399.05419921875,-4715.91943359375,-5935.033203125,6408.69140625,-1890.6593017578125,-3589.7890625,9100.4375,-3680.38818359375,8631.546875,6046.294921875,5451.837890625,6983.2802734375,3189.245849609375,-247.955322265625,4208.087890625,-0.0,5005.9951171875,-14502.2080078125,3422.896240234375,12308.7568359375,2946.853515625,-6630.4208984375,4592.73681640625,4754.861328125,6746.45068359375,3787.676513671875,3356.138916015625,-4297.09765625,-14324.1884765625,-7990.201171875,2669.493408203125,-1904.9644775390625,0.0,-6176.63037109375,0.0,-6349.0869140625,-13318.0615234375,3759.861083984375,-8615.6533203125,0.0,-17015.93359375,-3263.15576171875,0.0,-7363.16064453125,0.0,4803.33935546875,-0.0,-5870.66015625
-11572.837890625,-8752.345703125,11301.8349609375,-8228.619140625,6818.771484375,2425.51171875,3738.4033203125,-5777.67724609375,0.0,-3569.9208984375,-2018.6107177734375,-15494.8232421875,0.0,0.0,0.0,-3571.51025390625,1442.432373046875,11356.6708984375,-0.0,79.47286224365234,6049.47412109375,9492.23828125,7073.87939453125,3040.631591796875,3403.02783203125,-4712.740234375,-5931.8544921875,6410.28076171875,-1885.8909912109375,-3592.17333984375,9102.8212890625,-3678.798583984375,8630.7529296875,6047.88427734375,5452.6328125,6985.66455078125,3190.835205078125,-246.36587524414062,4209.67724609375,-0.0,5009.17431640625,-14501.412109375,3423.69091796875,12312.7294921875,2946.853515625,-6628.83154296875,4588.7626953125,4755.65576171875,6748.04052734375,3788.47119140625,3356.138916015625,-4296.302734375,-14321.8037109375,-7980.6640625,2675.056396484375,-1899.4013671875,0.0,-6174.24609375,0.0,-6349.8818359375,-13309.3193359375,3759.06640625,-8616.447265625,0.0,-17011.9609375,-3256.003173828125,0.0,-7360.7763671875,0.0,4802.544921875,-0.0,-5872.24951171875
-11566.4794921875,-8734.0673828125,11303.4248046875,-8223.8515625,6821.9501953125,2428.690673828125,3739.197998046875,-5775.29296875,0.0,-3571.51025390625,-2009.073974609375,-15482.90234375,0.0,0.0,0.0,-3572.304931640625,1447.2008056640625,11360.6455078125,-0.0,77.8833999633789,6052.65283203125,9496.2119140625,7076.263671875,3043.015625,3407.796142578125,-4704.79345703125,-5930.26513671875,6414.2548828125,-1881.9173583984375,-3581.047119140625,9106.0,-3675.619873046875,8635.5205078125,6052.65283203125,5455.01708984375,6988.84326171875,3190.835205078125,-243.18695068359375,4218.41943359375,-0.0,5012.353515625,-14494.259765625,3425.2802734375,12314.3193359375,2947.648193359375,-6629.6259765625,4599.09423828125,4762.013671875,6751.21923828125,3794.0341796875,3355.343994140625,-4293.91845703125,-14330.5458984375,-7963.97509765625,2679.82470703125,-1889.8646240234375,0.0,-6168.68359375,0.0,-6349.0869140625,-13299.783203125,3761.450439453125,-8617.2421875,0.0,-17009.576171875,-3240.1083984375,0.0,-7375.08154296875,0.0,4797.77685546875,-0.0,-5877.81298828125
-11568.0693359375,-8716.5830078125,11308.9873046875,-8220.6728515625,6829.10302734375,2432.6640625,3739.992919921875,-5767.34521484375,0.0,-3562.768310546875,-2005.1002197265625,-15482.90234375,0.0,0.0,0.0,-3566.741943359375,1451.9691162109375,11365.4140625,-0.0,82.65177154541016,6058.21630859375,9498.595703125,7080.23681640625,3049.37353515625,3414.154052734375,-4700.8193359375,-5926.291015625,6421.4072265625,-1874.7647705078125,-3572.304931640625,9109.1796875,-3671.64599609375,8639.4951171875,6056.626953125,5458.99072265625,6992.81689453125,3194.014404296875,-238.4185791015625,4225.572265625,-0.0,5016.3271484375,-14488.697265625,3426.074951171875,12319.8828125,2949.23779296875,-6623.26806640625,4605.4521484375,4766.7822265625,6755.98779296875,3800.39208984375,3357.728271484375,-4286.76611328125,-14318.625,-7960.79638671875,2685.387939453125,-1885.8909912109375,0.0,-6160.736328125,0.0,-6341.13916015625,-13298.98828125,3765.424072265625,-8611.6787109375,0.0,-17017.5234375,-3236.9296875,0.0,-7373.49169921875,0.0,4804.13427734375,-0.0,-5873.04443359375
-11586.3486328125,-8720.5576171875,11312.1669921875,-8224.646484375,6830.6923828125,2431.074951171875,3741.582275390625,-5768.14013671875,0.0,-3561.178955078125,-2010.663330078125,-15490.849609375,0.0,0.0,0.0,-3563.56298828125,1450.3797607421875,11363.82421875,-0.0,85.03595733642578,6056.626953125,9497.0068359375,7078.6474609375,3046.989501953125,3415.74365234375,-4704.79345703125,-5926.291015625,6418.22802734375,-1873.17529296875,-3575.484130859375,9106.794921875,-3673.235595703125,8640.2890625,6054.24267578125,5457.4013671875,6992.02197265625,3194.80908203125,-238.4185791015625,4225.572265625,-0.0,5017.12158203125,-14493.4658203125,3426.074951171875,12318.2939453125,2949.23779296875,-6621.6787109375,4605.4521484375,4760.42431640625,6758.3720703125,3797.21337890625,3356.93359375,-4287.56103515625,-14324.1884765625,-7971.9228515625,2688.56689453125,-1893.8382568359375,0.0,-6167.09375,0.0,-6337.166015625,-13314.8828125,3764.62939453125,-8610.884765625,0.0,-17024.67578125,-3249.645263671875,0.0,-7359.1865234375,0.0,4808.10791015625,-0.0,-5869.0703125
-11576.8115234375,-8735.65625,11309.783203125,-8227.8251953125,6825.12890625,2427.895751953125,3741.582275390625,-5772.90869140625,0.0,-3565.15234375,-2018.6107177734375,-15494.8232421875,0.0,0.0,0.0,-3568.33154296875,1447.2008056640625,11361.439453125,-0.0,81.85704803466797,6053.44775390625,9494.6220703125,7076.263671875,3042.22119140625,3403.82275390625,-4707.97216796875,-5931.0595703125,6415.04931640625,-1885.09619140625,-3581.047119140625,9106.0,-3671.64599609375,8638.69921875,6052.65283203125,5454.22216796875,6990.4326171875,3194.014404296875,-243.18695068359375,4228.75048828125,-0.0,5013.94287109375,-14495.0556640625,3424.4853515625,12313.525390625,2949.23779296875,-6624.06298828125,4599.88916015625,4755.65576171875,6753.603515625,3792.44482421875,3356.138916015625,-4293.91845703125,-14315.4462890625,-7981.45947265625,2676.64599609375,-1899.4013671875,0.0,-6172.6572265625,0.0,-6341.93408203125,-13334.7509765625,3761.450439453125,-8614.0634765625,0.0,-17025.470703125,-3259.181884765625,0.0,-7360.7763671875,0.0,4804.92919921875,-0.0,-5869.865234375
-11564.890625,-8734.0673828125,11309.783203125,-8220.6728515625,6824.33447265625,2432.6640625,3739.992919921875,-5770.5244140625,0.0,-3565.947265625,-2021.78955078125,-15487.6708984375,0.0,0.0,0.0,-3567.53662109375,1452.763916015625,11363.82421875,-0.0,80.26758575439453,6055.83203125,9497.8017578125,7078.6474609375,3045.39990234375,3399.848876953125,-4700.8193359375,-5931.0595703125,6419.8173828125,-1889.8646240234375,-3578.662841796875,9109.9736328125,-3668.46728515625,8640.2890625,6056.626953125,5457.4013671875,6992.81689453125,3194.014404296875,-240.80276489257812,4220.8037109375,-0.0,5015.5322265625,-14490.287109375,3426.074951171875,12317.498046875,2950.032470703125,-6624.06298828125,4598.29931640625,4764.39794921875,6753.603515625,3797.21337890625,3356.138916015625,-4292.3291015625,-14305.115234375,-7972.71728515625,2671.082763671875,-1897.8118896484375,0.0,-6168.68359375,0.0,-6343.5234375,-13354.619140625,3764.62939453125,-8613.2685546875,0.0,-17017.5234375,-3248.8505859375,0.0,-7363.16064453125,0.0,4802.544921875,-0.0,-5874.6337890625
-11567.275390625,-8726.9140625,11312.1669921875,-8219.0830078125,6823.53955078125,2435.04833984375,3739.992919921875,-5768.9345703125,0.0,-3564.357666015625,-2025.7633056640625,-15486.0810546875,0.0,0.0,0.0,-3562.768310546875,1451.9691162109375,11366.2080078125,-0.0,80.26758575439453,6057.42138671875,9500.98046875,7078.6474609375,3047.7841796875,3404.6171875,-4695.2568359375,-5931.0595703125,6422.20166015625,-1885.09619140625,-3576.27880859375,9109.1796875,-3670.056640625,8640.2890625,6059.0107421875,5459.78564453125,6995.201171875,3194.014404296875,-238.4185791015625,4212.8564453125,-0.0,5017.12158203125,-14486.3125,3426.074951171875,12320.677734375,2948.443115234375,-6623.26806640625,4607.0419921875,4766.7822265625,6754.3984375,3801.186767578125,3357.728271484375,-4288.35546875,-14303.525390625,-7961.5908203125,2675.056396484375,-1889.8646240234375,0.0,-6163.1201171875,0.0,-6341.13916015625,-13341.9033203125,3766.218994140625,-8612.4736328125,0.0,-17009.576171875,-3239.313720703125,0.0,-7363.955078125,0.0,4799.3662109375,-0.0,-5873.04443359375
-11582.375,-8721.3515625,11308.9873046875,-8220.6728515625,6824.33447265625,2436.637939453125,3739.197998046875,-5767.34521484375,0.0,-3563.56298828125,-2024.1737060546875,-15491.64453125,0.0,0.0,0.0,-3560.384033203125,1451.1744384765625,11366.2080078125,-0.0,81.06231689453125,6059.0107421875,9500.98046875,7080.23681640625,3052.552490234375,3407.796142578125,-4692.07763671875,-5927.0859375,6426.97021484375,-1881.12255859375,-3571.51025390625,9111.5634765625,-3670.8515625,8638.69921875,6059.0107421875,5459.78564453125,6995.99609375,3192.4248046875,-237.6238555908203,4211.26708984375,-0.0,5016.3271484375,-14483.1337890625,3426.86962890625,12321.47265625,2947.648193359375,-6622.47314453125,4606.2470703125,4769.16650390625,6755.193359375,3803.571044921875,3358.523193359375,-4287.56103515625,-14314.6513671875,-7955.2333984375,2679.0302734375,-1889.8646240234375,0.0,-6158.35205078125,0.0,-6341.13916015625,-13300.578125,3767.013671875,-8613.2685546875,0.0,-17005.6015625,-3234.54541015625,0.0,-7362.36572265625,0.0,4796.98193359375,-0.0,-5869.865234375
-11587.9375,-8728.50390625,11308.9873046875,-8219.8779296875,6828.30810546875,2437.4326171875,3739.992919921875,-5764.16650390625,0.0,-3561.178955078125,-2018.6107177734375,-15482.90234375,0.0,0.0,0.0,-3558.794677734375,1451.9691162109375,11366.2080078125,-0.0,81.85704803466797,6057.42138671875,9500.98046875,7082.62109375,3053.347412109375,3410.180419921875,-4692.87255859375,-5926.291015625,6426.97021484375,-1879.533203125,-3569.126220703125,9110.7685546875,-3673.235595703125,8637.1103515625,6057.42138671875,5460.58056640625,6996.79052734375,3193.219482421875,-235.2396697998047,4214.44580078125,-0.0,5017.12158203125,-14482.3388671875,3426.074951171875,12324.650390625,2948.443115234375,-6620.8837890625,4605.4521484375,4765.1923828125,6756.78271484375,3804.365966796875,3358.523193359375,-4283.5869140625,-14330.5458984375,-7956.822265625,2681.414306640625,-1890.6593017578125,0.0,-6155.1728515625,0.0,-6337.166015625,-13283.09375,3768.60302734375,-8611.6787109375,0.0,-17001.62890625,-3236.9296875,0.0,-7352.0341796875,0.0,4809.69775390625,-0.0,-5865.89208984375
-11583.1689453125,-8737.24609375,11308.193359375,-8219.0830078125,6828.30810546875,2438.227294921875,3739.197998046875,-5762.5771484375,0.0,-3557.999755859375,-2015.431640625,-15478.1337890625,0.0,0.0,0.0,-3558.794677734375,1451.9691162109375,11367.00390625,-0.0,82.65177154541016,6055.83203125,9501.7744140625,7081.82666015625,3051.7578125,3411.769775390625,-4697.64111328125,-5927.880859375,6425.380859375,-1880.327880859375,-3572.304931640625,9110.7685546875,-3673.235595703125,8635.5205078125,6059.0107421875,5459.78564453125,6996.79052734375,3193.219482421875,-234.44493103027344,4215.240234375,-0.0,5017.12158203125,-14480.75,3425.2802734375,12323.8564453125,2949.23779296875,-6619.29443359375,4602.2734375,4766.7822265625,6755.98779296875,3804.365966796875,3357.728271484375,-4281.99755859375,-14336.9033203125,-7959.20654296875,2681.414306640625,-1889.8646240234375,0.0,-6155.9677734375,0.0,-6334.78173828125,-13283.888671875,3769.397705078125,-8610.884765625,0.0,-17004.80859375,-3237.724365234375,0.0,-7348.060546875,0.0,4813.6708984375,-0.0,-5864.30224609375
-11571.248046875,-8730.888671875,11316.140625,-8218.2880859375,6831.4873046875,2438.227294921875,3739.992919921875,-5760.98779296875,0.0,-3558.794677734375,-2009.073974609375,-15480.5185546875,0.0,0.0,0.0,-3559.58935546875,1455.9427490234375,11369.3876953125,-0.0,83.44650268554688,6060.60009765625,9504.9541015625,7082.62109375,3052.552490234375,3414.94873046875,-4695.2568359375,-5927.0859375,6426.17578125,-1877.14892578125,-3583.43115234375,9112.3583984375,-3673.235595703125,8645.0576171875,6062.189453125,5462.96435546875,6998.38037109375,3194.014404296875,-233.65020751953125,4233.51904296875,-0.0,5021.89013671875,-14478.3662109375,3426.074951171875,12323.8564453125,2950.032470703125,-6619.29443359375,4610.22021484375,4769.16650390625,6759.16650390625,3804.365966796875,3356.93359375,-4284.3818359375,-14321.8037109375,-7960.79638671875,2684.59326171875,-1885.8909912109375,0.0,-6156.7626953125,0.0,-6335.57666015625,-13289.451171875,3771.781982421875,-8612.4736328125,0.0,-17003.216796875,-3219.445556640625,0.0,-7352.8291015625,0.0,4809.69775390625,-0.0,-5863.5078125
-11569.6591796875,-8726.9140625,11316.140625,-8216.6982421875,6829.10302734375,2439.02197265625,3740.78759765625,-5761.7822265625,0.0,-3561.9736328125,-2014.636962890625,-15484.4921875,0.0,0.0,0.0,-3559.58935546875,1455.1480712890625,11368.591796875,-0.0,79.47286224365234,6062.189453125,9505.7490234375,7081.03173828125,3053.347412109375,3412.564453125,-4686.51416015625,-5926.291015625,6425.380859375,-1878.7384033203125,-3583.43115234375,9113.15234375,-3670.056640625,8643.4677734375,6062.984375,5462.16943359375,7000.76416015625,3193.219482421875,-235.2396697998047,4224.77734375,-0.0,5020.30029296875,-14478.3662109375,3426.86962890625,12323.8564453125,2949.23779296875,-6618.5,4610.22021484375,4770.755859375,6758.3720703125,3805.16064453125,3356.138916015625,-4284.3818359375,-14321.8037109375,-7963.97509765625,2683.003662109375,-1880.327880859375,0.0,-6159.94140625,0.0,-6335.57666015625,-13292.6298828125,3769.397705078125,-8613.2685546875,0.0,-17007.986328125,-3224.2138671875,0.0,-7360.7763671875,0.0,4793.00830078125,-0.0,-5865.89208984375
-11556.1484375,-8727.7099609375,11319.3193359375,-8209.5458984375,6831.4873046875,2446.174560546875,3742.376953125,-5756.21923828125,0.0,-3556.41064453125,-2016.2265625,-15478.9287109375,0.0,0.0,0.0,-3550.052734375,1457.5322265625,11371.771484375,-0.0,82.65177154541016,6063.779296875,9509.72265625,7085.00537109375,3058.11572265625,3414.154052734375,-4677.7724609375,-5924.70166015625,6432.533203125,-1877.14892578125,-3562.768310546875,9117.126953125,-3666.0830078125,8644.263671875,6067.7529296875,5466.93798828125,7004.73779296875,3194.014404296875,-230.47129821777344,4216.03515625,-0.0,5023.4794921875,-14471.212890625,3427.66455078125,12331.0087890625,2949.23779296875,-6612.9365234375,4611.01513671875,4782.6767578125,6759.96142578125,3810.7236328125,3357.728271484375,-4276.4345703125,-14321.8037109375,-7960.79638671875,2684.59326171875,-1889.0699462890625,0.0,-6150.404296875,0.0,-6326.833984375,-13303.7568359375,3774.960693359375,-8607.705078125,0.0,-17008.78125,-3244.876953125,0.0,-7350.44482421875,0.0,4793.00830078125,-0.0,-5869.0703125
-11551.3798828125,-8734.8623046875,11318.5244140625,-8207.95703125,6833.07666015625,2446.174560546875,3740.78759765625,-5757.80859375,0.0,-3558.794677734375,-2012.2528076171875,-15473.3662109375,0.0,0.0,0.0,-3554.821044921875,1458.326904296875,11374.15625,-0.0,81.85704803466797,6066.16357421875,9510.517578125,7086.59521484375,3059.705078125,3418.127685546875,-4684.92529296875,-5925.49658203125,6429.35400390625,-1873.17529296875,-3559.58935546875,9119.5107421875,-3666.0830078125,8645.8525390625,6068.5478515625,5466.93798828125,7003.94287109375,3195.603515625,-230.47129821777344,4216.82958984375,-0.0,5025.86376953125,-14472.0078125,3426.86962890625,12328.625,2949.23779296875,-6615.32080078125,4610.22021484375,4784.26611328125,6762.345703125,3809.928955078125,3357.728271484375,-4278.81884765625,-14317.830078125,-7962.38623046875,2689.361572265625,-1907.3486328125,0.0,-6150.404296875,0.0,-6331.6025390625,-13313.29296875,3775.755615234375,-8608.5,0.0,-17006.396484375,-3241.697998046875,0.0,-7347.265625,0.0,4807.3134765625,-0.0,-5874.6337890625
-11564.890625,-8731.6826171875,11316.140625,-8212.7255859375,6834.666015625,2439.816650390625,3741.582275390625,-5760.19287109375,0.0,-3559.58935546875,-1998.7423095703125,-15474.16015625,0.0,0.0,0.0,-3560.384033203125,1455.1480712890625,11372.56640625,-0.0,83.44650268554688,6066.16357421875,9508.1328125,7084.2109375,3055.7314453125,3414.94873046875,-4696.84619140625,-5928.67529296875,6427.7646484375,-1876.354248046875,-3565.947265625,9116.33203125,-3668.46728515625,8644.263671875,6064.57373046875,5465.3486328125,7000.76416015625,3195.603515625,-232.85548400878906,4215.240234375,-0.0,5023.4794921875,-14479.16015625,3429.25390625,12324.650390625,2950.032470703125,-6619.29443359375,4610.22021484375,4773.93505859375,6762.345703125,3805.955078125,3358.523193359375,-4281.99755859375,-14317.830078125,-7965.56494140625,2686.1826171875,-1891.4541015625,0.0,-6153.58349609375,0.0,-6335.57666015625,-13306.935546875,3771.781982421875,-8609.294921875,0.0,-17012.75390625,-3232.9560546875,0.0,-7345.67626953125,0.0,4819.234375,-0.0,-5861.91796875
-11573.6318359375,-8726.1201171875,11318.5244140625,-8213.5205078125,6833.07666015625,2439.816650390625,3739.992919921875,-5767.34521484375,0.0,-3563.56298828125,-1997.153076171875,-15470.9814453125,0.0,0.0,0.0,-3563.56298828125,1459.1217041015625,11372.56640625,-0.0,79.47286224365234,6066.9580078125,9506.54296875,7085.00537109375,3052.552490234375,3414.94873046875,-4698.435546875,-5929.47021484375,6424.5859375,-1875.5594482421875,-3565.947265625,9117.9208984375,-3666.0830078125,8647.44140625,6064.57373046875,5465.3486328125,6999.9697265625,3195.603515625,-235.2396697998047,4223.18798828125,-0.0,5024.2744140625,-14482.3388671875,3428.459228515625,12325.4462890625,2948.443115234375,-6623.26806640625,4615.78369140625,4772.34521484375,6763.14013671875,3802.7763671875,3357.728271484375,-4286.76611328125,-14319.419921875,-7959.20654296875,2686.1826171875,-1875.5594482421875,0.0,-6157.55712890625,0.0,-6341.13916015625,-13303.7568359375,3771.781982421875,-8611.6787109375,0.0,-17011.9609375,-3236.134765625,0.0,-7355.21337890625,0.0,4808.90283203125,-0.0,-5868.27587890625
-11564.095703125,-8729.298828125,11317.7294921875,-8215.109375,6832.28173828125,2440.611572265625,3739.992919921875,-5767.34521484375,0.0,-3570.715576171875,-2021.78955078125,-15467.0078125,0.0,0.0,0.0,-3565.947265625,1461.505859375,11370.9765625,-0.0,75.49921417236328,6066.9580078125,9508.927734375,7085.00537109375,3051.7578125,3414.94873046875,-4695.2568359375,-5927.880859375,6422.99658203125,-1874.7647705078125,-3565.15234375,9119.5107421875,-3662.904052734375,8649.03125,6064.57373046875,5465.3486328125,6999.9697265625,3192.4248046875,-235.2396697998047,4222.39306640625,-0.0,5025.06884765625,-14481.544921875,3426.86962890625,12323.8564453125,2946.05908203125,-6626.447265625,4615.78369140625,4770.755859375,6759.96142578125,3804.365966796875,3357.728271484375,-4289.9453125,-14317.830078125,-7956.02783203125,2686.977294921875,-1873.969970703125,0.0,-6159.14697265625,0.0,-6347.49755859375,-13303.7568359375,3771.781982421875,-8614.0634765625,0.0,-17008.78125,-3238.51904296875,0.0,-7363.16064453125,0.0,4796.18701171875,-0.0,-5881.7861328125
-11560.9169921875,-8737.24609375,11309.783203125,-8215.109375,6829.8974609375,2438.227294921875,3739.992919921875,-5768.9345703125,0.0,-3569.126220703125,-2039.2735595703125,-15467.802734375,0.0,0.0,0.0,-3565.15234375,1458.326904296875,11369.3876953125,-0.0,76.2939453125,6063.779296875,9506.54296875,7081.82666015625,3050.963134765625,3410.97509765625,-4694.4619140625,-5929.47021484375,6422.99658203125,-1880.327880859375,-3568.33154296875,9116.33203125,-3667.67236328125,8644.263671875,6062.189453125,5464.5537109375,6999.1748046875,3192.4248046875,-238.4185791015625,4215.240234375,-0.0,5021.09521484375,-14479.16015625,3425.2802734375,12321.47265625,2946.05908203125,-6626.447265625,4607.0419921875,4767.57666015625,6756.78271484375,3802.7763671875,3356.93359375,-4289.9453125,-14318.625,-7963.97509765625,2682.208984375,-1881.9173583984375,0.0,-6159.14697265625,0.0,-6347.49755859375,-13317.267578125,3768.60302734375,-8615.6533203125,0.0,-17015.138671875,-3239.313720703125,0.0,-7364.75,0.0,4796.98193359375,-0.0,-5880.99169921875
-11548.99609375,-8738.041015625,11310.5771484375,-8215.109375,6829.10302734375,2438.227294921875,3739.992919921875,-5768.9345703125,0.0,-3567.53662109375,-2036.0947265625,-15472.5712890625,0.0,0.0,0.0,-3567.53662109375,1458.326904296875,11369.3876953125,-0.0,77.8833999633789,6063.779296875,9507.3388671875,7082.62109375,3052.552490234375,3407.00146484375,-4693.6669921875,-5929.47021484375,6419.8173828125,-1884.301513671875,-3572.304931640625,9116.33203125,-3665.288330078125,8645.8525390625,6063.779296875,5462.96435546875,7001.55859375,3194.014404296875,-238.4185791015625,4215.240234375,-0.0,5022.6845703125,-14475.9814453125,3424.4853515625,12320.677734375,2947.648193359375,-6624.857421875,4601.478515625,4769.16650390625,6756.78271484375,3800.39208984375,3356.93359375,-4289.9453125,-14322.5986328125,-7968.7431640625,2676.64599609375,-1889.8646240234375,0.0,-6159.14697265625,0.0,-6345.90771484375,-13335.5458984375,3768.60302734375,-8617.2421875,0.0,-17027.85546875,-3241.697998046875,0.0,-7367.13427734375,0.0,4797.77685546875,-0.0,-5877.81298828125
-11552.1748046875,-8740.4248046875,11309.783203125,-8219.8779296875,6827.51318359375,2435.84326171875,3739.197998046875,-5768.9345703125,0.0,-3568.33154296875,-2032.1209716796875,-15479.7236328125,0.0,0.0,0.0,-3569.9208984375,1453.55859375,11368.591796875,-0.0,77.8833999633789,6061.39501953125,9503.3642578125,7081.03173828125,3050.963134765625,3404.6171875,-4698.435546875,-5930.26513671875,6416.638671875,-1885.8909912109375,-3580.25244140625,9113.9482421875,-3668.46728515625,8645.0576171875,6060.60009765625,5461.375,6998.38037109375,3194.014404296875,-237.6238555908203,4210.47216796875,-0.0,5019.505859375,-14477.5703125,3424.4853515625,12319.087890625,2949.23779296875,-6625.65234375,4597.5048828125,4762.80810546875,6755.98779296875,3797.21337890625,3358.523193359375,-4291.5341796875,-14345.6455078125,-7971.12744140625,2673.467041015625,-1891.4541015625,0.0,-6162.3251953125,0.0,-6344.318359375,-13337.9296875,3770.1923828125,-8616.447265625,0.0,-17035.802734375,-3249.645263671875,0.0,-7363.955078125,0.0,4800.955078125,-0.0,-5873.04443359375
-11558.533203125,-8741.2197265625,11312.1669921875,-8215.904296875,6830.6923828125,2435.84326171875,3742.376953125,-5768.14013671875,0.0,-3568.33154296875,-2025.7633056640625,-15482.90234375,0.0,0.0,0.0,-3569.9208984375,1456.737548828125,11370.181640625,-0.0,78.67813110351562,6062.189453125,9504.1591796875,7084.2109375,3051.7578125,3409.3857421875,-4696.05126953125,-5928.67529296875,6417.43310546875,-1881.12255859375,-3579.45751953125,9115.537109375,-3667.67236328125,8645.0576171875,6063.779296875,5464.5537109375,7000.76416015625,3193.219482421875,-237.6238555908203,4210.47216796875,-0.0,5021.89013671875,-14476.7763671875,3426.074951171875,12319.8828125,2950.032470703125,-6624.06298828125,4601.478515625,4765.9873046875,6759.96142578125,3798.008056640625,3356.93359375,-4290.73974609375,-14346.4404296875,-7981.45947265625,2679.0302734375,-1887.4803466796875,0.0,-6161.53076171875,0.0,-6346.70263671875,-13316.4716796875,3772.57666015625,-8617.2421875,0.0,-17025.470703125,-3247.260986328125,0.0,-7367.13427734375,0.0,4797.77685546875,-0.0,-5874.6337890625
-11569.6591796875,-8741.2197265625,11317.7294921875,-8205.5732421875,6837.8447265625,2442.200927734375,3743.171630859375,-5764.96142578125,0.0,-3570.715576171875,-2017.8157958984375,-15478.1337890625,0.0,0.0,0.0,-3569.9208984375,1463.0953369140625,11378.12890625,-0.0,77.8833999633789,6069.34228515625,9512.9013671875,7087.3896484375,3055.7314453125,3420.511962890625,-4687.30908203125,-5925.49658203125,6422.99658203125,-1870.7911376953125,-3577.8681640625,9121.1005859375,-3662.904052734375,8649.03125,6070.93212890625,5469.322265625,7006.3271484375,3195.603515625,-235.2396697998047,4219.2138671875,-0.0,5031.4267578125,-14468.0341796875,3428.459228515625,12323.8564453125,2950.827392578125,-6622.47314453125,4610.22021484375,4780.29248046875,6765.5244140625,3804.365966796875,3358.523193359375,-4289.150390625,-14330.5458984375,-7990.201171875,2688.56689453125,-1880.327880859375,0.0,-6159.14697265625,0.0,-6349.8818359375,-13311.7041015625,3775.755615234375,-8614.0634765625,0.0,-17020.703125,-3234.54541015625,0.0,-7367.92919921875,0.0,4788.23974609375,-0.0,-5884.17041015625
-11577.6064453125,-8745.98828125,11318.5244140625,-8204.77734375,6837.8447265625,2442.200927734375,3742.376953125,-5763.3720703125,0.0,-3570.715576171875,-2026.557861328125,-15473.3662109375,0.0,0.0,0.0,-3569.126220703125,1463.0953369140625,11378.12890625,-0.0,79.47286224365234,6068.5478515625,9512.9013671875,7087.3896484375,3057.32080078125,3418.127685546875,-4688.10400390625,-5927.0859375,6422.99658203125,-1874.7647705078125,-3590.583740234375,9121.89453125,-3662.109375,8649.03125,6071.7265625,5469.322265625,7007.9169921875,3196.3984375,-233.65020751953125,4221.59814453125,-0.0,5030.6318359375,-14465.6494140625,3428.459228515625,12323.8564453125,2950.827392578125,-6621.6787109375,4613.3994140625,4783.4716796875,6764.72998046875,3803.571044921875,3358.523193359375,-4289.150390625,-14330.5458984375,-7985.4326171875,2685.387939453125,-1874.7647705078125,0.0,-6158.35205078125,0.0,-6349.8818359375,-13319.6513671875,3774.960693359375,-8613.2685546875,0.0,-17025.470703125,-3231.366455078125,0.0,-7368.7236328125,0.0,4787.4453125,-0.0,-5882.5810546875
-11577.6064453125,-8742.8095703125,11316.140625,-8211.9306640625,6833.87158203125,2439.816650390625,3740.78759765625,-5764.16650390625,0.0,-3569.9208984375,-2034.505126953125,-15474.955078125,0.0,0.0,0.0,-3569.9208984375,1460.711181640625,11374.15625,-0.0,79.47286224365234,6065.36865234375,9508.927734375,7085.80029296875,3053.347412109375,3410.97509765625,-4692.07763671875,-5927.880859375,6422.99658203125,-1881.12255859375,-3585.8154296875,9119.5107421875,-3665.288330078125,8649.03125,6069.34228515625,5465.3486328125,7005.53271484375,3196.3984375,-234.44493103027344,4227.9560546875,-0.0,5025.06884765625,-14470.41796875,3426.86962890625,12323.0615234375,2949.23779296875,-6621.6787109375,4617.373046875,4773.14013671875,6762.345703125,3800.39208984375,3359.31787109375,-4289.150390625,-14351.208984375,-7972.71728515625,2679.0302734375,-1883.5068359375,0.0,-6160.736328125,0.0,-6346.70263671875,-13299.783203125,3773.371337890625,-8614.0634765625,0.0,-17019.90625,-3238.51904296875,0.0,-7367.13427734375,0.0,4793.802734375,-0.0,-5873.8388671875
-11582.375,-8743.603515625,11312.1669921875,-8218.2880859375,6830.6923828125,2439.02197265625,3740.78759765625,-5768.14013671875,0.0,-3571.51025390625,-2036.0947265625,-15478.1337890625,0.0,0.0,0.0,-3572.304931640625,1456.737548828125,11370.181640625,-0.0,77.08867645263672,6062.189453125,9505.7490234375,7081.82666015625,3050.168212890625,3408.591064453125,-4692.87255859375,-5926.291015625,6419.02294921875,-1881.9173583984375,-3573.89453125,9115.537109375,-3672.440673828125,8643.4677734375,6061.39501953125,5462.16943359375,7000.76416015625,3194.014404296875,-238.4185791015625,4220.0087890625,-0.0,5021.09521484375,-14476.7763671875,3424.4853515625,12320.677734375,2950.032470703125,-6624.857421875,4610.22021484375,4769.9609375,6755.98779296875,3798.802734375,3357.728271484375,-4290.73974609375,-14334.51953125,-7960.79638671875,2679.0302734375,-1900.9908447265625,0.0,-6166.29931640625,0.0,-6348.2919921875,-13292.6298828125,3769.397705078125,-8616.447265625,0.0,-17019.11328125,-3251.23486328125,0.0,-7372.697265625,0.0,4793.802734375,-0.0,-5875.4287109375
-11582.375,-8749.9619140625,11307.3984375,-8221.466796875,6825.923828125,2436.637939453125,3739.992919921875,-5771.31884765625,0.0,-3573.89453125,-2038.4788818359375,-15482.1083984375,0.0,0.0,0.0,-3577.0732421875,1452.763916015625,11366.2080078125,-0.0,73.90975952148438,6057.42138671875,9501.7744140625,7078.6474609375,3046.989501953125,3403.82275390625,-4694.4619140625,-5926.291015625,6415.04931640625,-1887.4803466796875,-3569.126220703125,9110.7685546875,-3674.0302734375,8639.4951171875,6056.626953125,5458.99072265625,6996.79052734375,3192.4248046875,-240.00804138183594,4219.2138671875,-0.0,5015.5322265625,-14480.75,3423.69091796875,12316.7041015625,2948.443115234375,-6631.21533203125,4600.68359375,4763.60302734375,6752.80908203125,3796.41845703125,3356.93359375,-4293.91845703125,-14316.2412109375,-7962.38623046875,2675.056396484375,-1914.501220703125,0.0,-6169.47802734375,0.0,-6353.85498046875,-13318.0615234375,3767.013671875,-8618.83203125,0.0,-17024.67578125,-3256.7978515625,0.0,-7382.23388671875,0.0,4785.85595703125,-0.0,-5884.17041015625
-11593.5009765625,-8745.98828125,11310.5771484375,-8220.6728515625,6827.51318359375,2439.816650390625,3738.4033203125,-5767.34521484375,0.0,-3572.304931640625,-2030.5316162109375,-15476.5439453125,0.0,0.0,0.0,-3574.689208984375,1456.737548828125,11368.591796875,-0.0,73.90975952148438,6058.21630859375,9503.3642578125,7080.23681640625,3049.37353515625,3403.02783203125,-4691.28271484375,-5925.49658203125,6419.8173828125,-1888.275146484375,-3566.741943359375,9113.15234375,-3668.46728515625,8643.4677734375,6059.80517578125,5462.16943359375,7001.55859375,3193.219482421875,-237.6238555908203,4223.982421875,-0.0,5015.5322265625,-14476.7763671875,3423.69091796875,12320.677734375,2949.23779296875,-6626.447265625,4595.91552734375,4762.80810546875,6755.193359375,3800.39208984375,3356.93359375,-4292.3291015625,-14340.0830078125,-7964.7705078125,2675.056396484375,-1895.427734375,0.0,-6164.70947265625,0.0,-6349.0869140625,-13332.3671875,3767.80810546875,-8618.037109375,0.0,-17027.05859375,-3252.029296875,0.0,-7383.0283203125,0.0,4785.85595703125,-0.0,-5894.501953125
-11595.8857421875,-8730.888671875,11319.3193359375,-8206.3671875,6837.0498046875,2450.1484375,3739.992919921875,-5758.603515625,0.0,-3568.33154296875,-2014.636962890625,-15457.470703125,0.0,0.0,0.0,-3559.58935546875,1468.658447265625,11380.513671875,-0.0,77.08867645263672,6070.93212890625,9516.080078125,7087.3896484375,3059.705078125,3416.538330078125,-4678.5673828125,-5921.5224609375,6432.533203125,-1874.7647705078125,-3555.61572265625,9125.869140625,-3657.341064453125,8653.7998046875,6071.7265625,5469.322265625,7012.68505859375,3194.014404296875,-228.8818359375,4228.75048828125,-0.0,5027.453125,-14463.265625,3425.2802734375,12331.8037109375,2950.827392578125,-6617.705078125,4604.65771484375,4774.7294921875,6763.93505859375,3814.697265625,3357.728271484375,-4279.61328125,-14359.15625,-7947.28564453125,2687.77197265625,-1873.17529296875,0.0,-6148.81494140625,0.0,-6338.75537109375,-13324.419921875,3777.344970703125,-8611.6787109375,0.0,-17021.498046875,-3231.366455078125,0.0,-7372.697265625,0.0,4789.8291015625,-0.0,-5892.91259765625
-11587.142578125,-8726.9140625,11316.935546875,-8204.77734375,6838.6396484375,2452.532470703125,3741.582275390625,-5759.39794921875,0.0,-3570.715576171875,-2019.4053955078125,-15449.5234375,0.0,0.0,0.0,-3561.178955078125,1470.2479248046875,11382.8974609375,-0.0,77.8833999633789,6072.52099609375,9518.4638671875,7087.3896484375,3061.29443359375,3418.92236328125,-4676.9775390625,-5919.93310546875,6433.328125,-1868.4068603515625,-3554.0263671875,9127.4580078125,-3655.75146484375,8655.388671875,6076.49462890625,5471.70654296875,7012.68505859375,3193.219482421875,-230.47129821777344,4226.36669921875,-0.0,5029.04248046875,-14460.880859375,3425.2802734375,12331.8037109375,2949.23779296875,-6618.5,4606.2470703125,4782.6767578125,6765.5244140625,3817.08154296875,3356.93359375,-4280.408203125,-14348.82421875,-7941.72265625,2690.15625,-1866.8175048828125,0.0,-6148.81494140625,0.0,-6343.5234375,-13319.6513671875,3778.139892578125,-8612.4736328125,0.0,-17008.78125,-3210.70361328125,0.0,-7374.28662109375,0.0,4790.6240234375,-0.0,-5880.99169921875
-11591.9111328125,-8723.7353515625,11314.5517578125,-8208.751953125,6836.25537109375,2448.558837890625,3741.582275390625,-5763.3720703125,0.0,-3567.53662109375,-2026.557861328125,-15449.5234375,0.0,0.0,0.0,-3565.15234375,1467.0689697265625,11378.9248046875,-0.0,79.47286224365234,6071.7265625,9514.4912109375,7086.59521484375,3054.936767578125,3417.3330078125,-4681.74609375,-5919.93310546875,6430.94384765625,-1871.5858154296875,-3557.205078125,9124.279296875,-3658.1357421875,8650.6201171875,6074.9052734375,5467.73291015625,7007.1220703125,3195.603515625,-232.85548400878906,4218.41943359375,-0.0,5025.86376953125,-14464.85546875,3426.86962890625,12329.4189453125,2950.032470703125,-6621.6787109375,4607.83642578125,4784.26611328125,6764.72998046875,3812.31298828125,3358.523193359375,-4284.3818359375,-14332.9306640625,-7940.13330078125,2687.77197265625,-1867.6121826171875,0.0,-6155.9677734375,0.0,-6346.70263671875,-13329.982421875,3774.166015625,-8612.4736328125,0.0,-16996.861328125,-3209.114013671875,0.0,-7361.57080078125,0.0,4798.5712890625,-0.0,-5870.66015625
-11596.6796875,-8718.1728515625,11315.345703125,-8205.5732421875,6837.8447265625,2450.1484375,3741.582275390625,-5760.19287109375,0.0,-3565.15234375,-2028.1474609375,-15448.7294921875,0.0,0.0,0.0,-3557.999755859375,1467.0689697265625,11379.71875,-0.0,79.47286224365234,6070.13720703125,9516.875,7087.3896484375,3056.526123046875,3422.101318359375,-4677.7724609375,-5921.5224609375,6435.71240234375,-1867.6121826171875,-3553.2314453125,9126.6630859375,-3660.519775390625,8650.6201171875,6074.9052734375,5468.52734375,7009.50634765625,3194.80908203125,-229.6765594482422,4216.03515625,-0.0,5025.86376953125,-14463.265625,3426.86962890625,12333.3935546875,2950.032470703125,-6617.705078125,4612.6044921875,4785.85595703125,6766.3193359375,3816.286865234375,3357.728271484375,-4280.408203125,-14321.8037109375,-7933.77587890625,2694.1298828125,-1866.022705078125,0.0,-6150.404296875,0.0,-6342.72900390625,-13318.8564453125,3776.55029296875,-8612.4736328125,0.0,-16993.681640625,-3220.240234375,0.0,-7346.47119140625,0.0,4808.10791015625,-0.0,-5868.27587890625
-11583.9638671875,-8722.146484375,11314.5517578125,-8203.9833984375,6838.6396484375,2450.94287109375,3742.376953125,-5759.39794921875,0.0,-3564.357666015625,-2032.1209716796875,-15451.11328125,0.0,0.0,0.0,-3554.821044921875,1465.4794921875,11378.12890625,-0.0,80.26758575439453,6069.34228515625,9513.6953125,7087.3896484375,3058.910400390625,3421.306640625,-4678.5673828125,-5922.3173828125,6438.0966796875,-1866.8175048828125,-3551.64208984375,9126.6630859375,-3665.288330078125,8650.6201171875,6073.31591796875,5468.52734375,7008.71142578125,3194.80908203125,-228.0871124267578,4220.8037109375,-0.0,5025.86376953125,-14467.2392578125,3425.2802734375,12334.982421875,2949.23779296875,-6616.11572265625,4610.22021484375,4780.29248046875,6767.1142578125,3817.876220703125,3357.728271484375,-4277.2294921875,-14326.572265625,-7930.59619140625,2691.745849609375,-1871.5858154296875,0.0,-6145.63623046875,0.0,-6340.3447265625,-13287.0673828125,3776.55029296875,-8611.6787109375,0.0,-16995.271484375,-3229.777099609375,0.0,-7344.0869140625,0.0,4809.69775390625,-0.0,-5868.27587890625
-11576.8115234375,-8742.0146484375,11311.3720703125,-8211.1357421875,6835.46044921875,2443.79052734375,3739.992919921875,-5764.16650390625,0.0,-3567.53662109375,-2036.8892822265625,-15463.0341796875,0.0,0.0,0.0,-3561.178955078125,1461.505859375,11371.771484375,-0.0,77.08867645263672,6065.36865234375,9509.72265625,7081.82666015625,3053.347412109375,3413.359375,-4686.51416015625,-5925.49658203125,6430.14892578125,-1876.354248046875,-3560.384033203125,9119.5107421875,-3670.056640625,8645.8525390625,6066.9580078125,5464.5537109375,7003.1484375,3192.4248046875,-234.44493103027344,4220.0087890625,-0.0,5021.89013671875,-14473.59765625,3425.2802734375,12327.03515625,2949.23779296875,-6623.26806640625,4605.4521484375,4775.52392578125,6763.14013671875,3809.13427734375,3357.728271484375,-4283.5869140625,-14328.95703125,-7941.72265625,2683.003662109375,-1881.9173583984375,0.0,-6151.19921875,0.0,-6345.90771484375,-13296.6044921875,3771.781982421875,-8613.2685546875,0.0,-17007.986328125,-3240.1083984375,0.0,-7351.23974609375,0.0,4806.5185546875,-0.0,-5869.865234375
-11592.7060546875,-8751.5517578125,11308.193359375,-8220.6728515625,6830.6923828125,2435.84326171875,3738.4033203125,-5768.14013671875,0.0,-3569.126220703125,-2036.0947265625,-15470.9814453125,0.0,0.0,0.0,-3565.947265625,1457.5322265625,11367.7978515625,-0.0,74.7044906616211,6061.39501953125,9505.7490234375,7076.263671875,3047.7841796875,3409.3857421875,-4694.4619140625,-5926.291015625,6422.20166015625,-1883.5068359375,-3568.33154296875,9112.3583984375,-3674.0302734375,8640.2890625,6058.21630859375,5460.58056640625,6997.58544921875,3193.219482421875,-238.4185791015625,4216.82958984375,-0.0,5019.505859375,-14475.9814453125,3424.4853515625,12320.677734375,2949.23779296875,-6625.65234375,4603.06787109375,4765.1923828125,6760.755859375,3802.7763671875,3356.138916015625,-4289.9453125,-14349.6201171875,-7951.259765625,2678.2353515625,-1887.4803466796875,0.0,-6155.9677734375,0.0,-6346.70263671875,-13315.677734375,3765.424072265625,-8615.6533203125,0.0,-17020.703125,-3242.49267578125,0.0,-7353.6240234375,0.0,4805.7236328125,-0.0,-5869.865234375
-11591.1171875,-8742.8095703125,11311.3720703125,-8218.2880859375,6830.6923828125,2436.637939453125,3740.78759765625,-5764.96142578125,0.0,-3565.947265625,-2029.73681640625,-15466.212890625,0.0,0.0,0.0,-3563.56298828125,1457.5322265625,11368.591796875,-0.0,76.2939453125,6062.984375,9506.54296875,7077.8525390625,3049.37353515625,3409.3857421875,-4692.07763671875,-5926.291015625,6422.20166015625,-1881.9173583984375,-3565.947265625,9114.7421875,-3672.440673828125,8640.2890625,6059.80517578125,5462.16943359375,6999.9697265625,3194.014404296875,-236.03439331054688,4216.82958984375,-0.0,5021.09521484375,-14472.8017578125,3426.074951171875,12321.47265625,2948.443115234375,-6622.47314453125,4608.63134765625,4765.9873046875,6760.755859375,3801.186767578125,3356.138916015625,-4285.97119140625,-14371.0771484375,-7953.6435546875,2680.619384765625,-1884.301513671875,0.0,-6153.58349609375,0.0,-6341.93408203125,-13305.3466796875,3768.60302734375,-8614.857421875,0.0,-17019.11328125,-3236.134765625,0.0,-7350.44482421875,0.0,4805.7236328125,-0.0,-5868.27587890625
-11580.78515625,-8740.4248046875,11308.9873046875,-8219.8779296875,6828.30810546875,2436.637939453125,3739.992919921875,-5767.34521484375,0.0,-3567.53662109375,-2042.4525146484375,-15465.4189453125,0.0,0.0,0.0,-3565.15234375,1455.1480712890625,11367.00390625,-0.0,76.2939453125,6058.21630859375,9504.1591796875,7077.05810546875,3048.578857421875,3401.4384765625,-4692.07763671875,-5927.880859375,6420.6123046875,-1889.0699462890625,-3569.126220703125,9111.5634765625,-3674.0302734375,8639.4951171875,6059.80517578125,5458.99072265625,6997.58544921875,3194.014404296875,-235.2396697998047,4209.67724609375,-0.0,5017.916015625,-14470.41796875,3424.4853515625,12320.677734375,2946.853515625,-6622.47314453125,4606.2470703125,4766.7822265625,6754.3984375,3799.597412109375,3356.93359375,-4288.35546875,-14360.7451171875,-7956.02783203125,2673.467041015625,-1889.0699462890625,0.0,-6152.78857421875,0.0,-6345.11328125,-13311.7041015625,3767.013671875,-8614.857421875,0.0,-17022.291015625,-3235.340087890625,0.0,-7353.6240234375,0.0,4801.75,-0.0,-5872.24951171875
-11574.427734375,-8736.451171875,11306.603515625,-8217.494140625,6825.923828125,2435.84326171875,3739.197998046875,-5767.34521484375,0.0,-3568.33154296875,-2039.2735595703125,-15463.8291015625,0.0,0.0,0.0,-3565.947265625,1452.763916015625,11365.4140625,-0.0,74.7044906616211,6056.626953125,9503.3642578125,7076.263671875,3050.168212890625,3399.05419921875,-4690.48828125,-5929.47021484375,6421.4072265625,-1889.8646240234375,-3570.715576171875,9112.3583984375,-3672.440673828125,8635.5205078125,6059.0107421875,5458.1962890625,6997.58544921875,3190.835205078125,-238.4185791015625,4205.70361328125,-0.0,5015.5322265625,-14468.0341796875,3422.896240234375,12319.8828125,2946.05908203125,-6623.26806640625,4606.2470703125,4768.37158203125,6752.80908203125,3798.008056640625,3355.343994140625,-4287.56103515625,-14351.208984375,-7956.02783203125,2671.877685546875,-1889.0699462890625,0.0,-6152.78857421875,0.0,-6345.11328125,-13307.73046875,3764.62939453125,-8614.857421875,0.0,-17019.11328125,-3233.75048828125,0.0,-7352.0341796875,0.0,4800.16064453125,-0.0,-5871.45458984375
-11587.142578125,-8735.65625,11313.755859375,-8214.314453125,6828.30810546875,2436.637939453125,3739.197998046875,-5768.14013671875,0.0,-3567.53662109375,-2031.3262939453125,-15463.8291015625,0.0,0.0,0.0,-3565.947265625,1456.737548828125,11367.7978515625,-0.0,73.11502838134766,6060.60009765625,9505.7490234375,7077.05810546875,3050.963134765625,3403.02783203125,-4688.10400390625,-5927.880859375,6420.6123046875,-1885.8909912109375,-3570.715576171875,9114.7421875,-3669.261962890625,8642.673828125,6062.189453125,5460.58056640625,6998.38037109375,3190.835205078125,-238.4185791015625,4212.8564453125,-0.0,5019.505859375,-14468.8291015625,3422.101318359375,12321.47265625,2947.648193359375,-6621.6787109375,4608.63134765625,4772.34521484375,6755.98779296875,3800.39208984375,3355.343994140625,-4288.35546875,-14346.4404296875,-7955.2333984375,2675.85107421875,-1888.275146484375,0.0,-6151.994140625,0.0,-6345.11328125,-13322.0361328125,3767.013671875,-8614.857421875,0.0,-17015.138671875,-3232.9560546875,0.0,-7351.23974609375,0.0,4800.16064453125,-0.0,-5870.66015625
-11582.375,-8734.0673828125,11305.80859375,-8210.341796875,6826.71875,2441.40625,3737.608642578125,-5766.55078125,0.0,-3566.741943359375,-2033.71044921875,-15459.85546875,0.0,0.0,0.0,-3564.357666015625,1459.1217041015625,11369.3876953125,-0.0,73.90975952148438,6059.80517578125,9508.927734375,7078.6474609375,3050.963134765625,3403.02783203125,-4684.13037109375,-5927.0859375,6424.5859375,-1886.6856689453125,-3566.741943359375,9115.537109375,-3662.904052734375,8642.673828125,6063.779296875,5459.78564453125,7001.55859375,3192.4248046875,-236.82911682128906,4207.29296875,-0.0,5016.3271484375,-14468.8291015625,3423.69091796875,12322.2666015625,2947.648193359375,-6621.6787109375,4591.14697265625,4777.908203125,6755.98779296875,3804.365966796875,3356.93359375,-4286.76611328125,-14336.109375,-7948.0810546875,2674.26171875,-1885.09619140625,0.0,-6149.60986328125,0.0,-6345.90771484375,-13332.3671875,3769.397705078125,-8615.6533203125,0.0,-17015.93359375,-3224.2138671875,0.0,-7354.41845703125,0.0,4800.955078125,-0.0,-5872.24951171875
